#K-Path(1/A)         Spin-Up(eV)   Spin-Down(eV)
# NKPTS & NBANDS: 150 160
# Band-Index    1
   0.00000    -19.211659    -19.214082
   0.01136    -19.211306    -19.213729
   0.02272    -19.210252    -19.212676
   0.03408    -19.208494    -19.210918
   0.04544    -19.206031    -19.208454
   0.05681    -19.202866    -19.205289
   0.06817    -19.198992    -19.201415
   0.07953    -19.194411    -19.196834
   0.09089    -19.189123    -19.191546
   0.10225    -19.183132    -19.185555
   0.11361    -19.176437    -19.178859
   0.12497    -19.169037    -19.171460
   0.13633    -19.160936    -19.163358
   0.14770    -19.152127    -19.154549
   0.15906    -19.142617    -19.145039
   0.17042    -19.132404    -19.134826
   0.18178    -19.121486    -19.123907
   0.19314    -19.109864    -19.112285
   0.20450    -19.097545    -19.099965
   0.21586    -19.084523    -19.086944
   0.22722    -19.070797    -19.073217
   0.23859    -19.056373    -19.058793
   0.24995    -19.041247    -19.043667
   0.26131    -19.025414    -19.027833
   0.27267    -19.008882    -19.011301
   0.28403    -18.991650    -18.994068
   0.29539    -18.973720    -18.976138
   0.30675    -18.955088    -18.957505
   0.31811    -18.935755    -18.938172
   0.32948    -18.915727    -18.918144
   0.34084    -18.895001    -18.897417
   0.35220    -18.873579    -18.875995
   0.36356    -18.851459    -18.853875
   0.37492    -18.828649    -18.831064
   0.38628    -18.805141    -18.807555
   0.39764    -18.780928    -18.783342
   0.40900    -18.756027    -18.758440
   0.42037    -18.730433    -18.732845
   0.43173    -18.704149    -18.706561
   0.44309    -18.677169    -18.679580
   0.45445    -18.649498    -18.651909
   0.46581    -18.621134    -18.623544
   0.47717    -18.592079    -18.594489
   0.48853    -18.562337    -18.564746
   0.49989    -18.531904    -18.534313
   0.51126    -18.500788    -18.503196
   0.52262    -18.468981    -18.471389
   0.53398    -18.436486    -18.438895
   0.54534    -18.403310    -18.405719
   0.55670    -18.370075    -18.372669
   0.55670    -18.370075    -18.372669
   0.56326    -18.369957    -18.372551
   0.56982    -18.369610    -18.372204
   0.57638    -18.369026    -18.371620
   0.58294    -18.368211    -18.370804
   0.58950    -18.367163    -18.369757
   0.59606    -18.365882    -18.368476
   0.60262    -18.364368    -18.366962
   0.60918    -18.362620    -18.365214
   0.61574    -18.360640    -18.363234
   0.62230    -18.358429    -18.361023
   0.62886    -18.355985    -18.358579
   0.63542    -18.353310    -18.355904
   0.64198    -18.350400    -18.352994
   0.64854    -18.347258    -18.349851
   0.65510    -18.343882    -18.346475
   0.66166    -18.340275    -18.342868
   0.66822    -18.336436    -18.339029
   0.67478    -18.332363    -18.334956
   0.68134    -18.328058    -18.330651
   0.68790    -18.323521    -18.326114
   0.69446    -18.318750    -18.321343
   0.70102    -18.313745    -18.316338
   0.70758    -18.308513    -18.311105
   0.71414    -18.303046    -18.305638
   0.72070    -18.297348    -18.299940
   0.72726    -18.291418    -18.294010
   0.73382    -18.285258    -18.287850
   0.74038    -18.278861    -18.281453
   0.74694    -18.272234    -18.274825
   0.75351    -18.265373    -18.267965
   0.76007    -18.258282    -18.260874
   0.76663    -18.250961    -18.253553
   0.77319    -18.243406    -18.245997
   0.77975    -18.235623    -18.238214
   0.78631    -18.227606    -18.230197
   0.79287    -18.219358    -18.221949
   0.79943    -18.210879    -18.213470
   0.80599    -18.202169    -18.204760
   0.81255    -18.193226    -18.195816
   0.81911    -18.184053    -18.186643
   0.82567    -18.174646    -18.177236
   0.83223    -18.165011    -18.167601
   0.83879    -18.155147    -18.157737
   0.84535    -18.145050    -18.147640
   0.85191    -18.134720    -18.137309
   0.85847    -18.124162    -18.126751
   0.86503    -18.113376    -18.115965
   0.87159    -18.102370    -18.104958
   0.87815    -18.091909    -18.094409
   0.87815    -18.091909    -18.094409
   0.89127    -18.135481    -18.137889
   0.90439    -18.179564    -18.181969
   0.91751    -18.222753    -18.225158
   0.93062    -18.265043    -18.267448
   0.94374    -18.306426    -18.308831
   0.95686    -18.346899    -18.349305
   0.96998    -18.386462    -18.388869
   0.98310    -18.425114    -18.427521
   0.99622    -18.462843    -18.465251
   1.00934    -18.499658    -18.502067
   1.02246    -18.535567    -18.537976
   1.03558    -18.570549    -18.572958
   1.04870    -18.604620    -18.607030
   1.06182    -18.637767    -18.640178
   1.07494    -18.669999    -18.672410
   1.08806    -18.701306    -18.703718
   1.10117    -18.731688    -18.734101
   1.11429    -18.761141    -18.763555
   1.12741    -18.789674    -18.792088
   1.14053    -18.817276    -18.819690
   1.15365    -18.843957    -18.846372
   1.16677    -18.869703    -18.872119
   1.17989    -18.894520    -18.896936
   1.19301    -18.918403    -18.920820
   1.20613    -18.941360    -18.943777
   1.21925    -18.963388    -18.965806
   1.23237    -18.984487    -18.986905
   1.24549    -19.004649    -19.007068
   1.25861    -19.023880    -19.026299
   1.27173    -19.042169    -19.044588
   1.28484    -19.059530    -19.061950
   1.29796    -19.075955    -19.078375
   1.31108    -19.091439    -19.093860
   1.32420    -19.105995    -19.108416
   1.33732    -19.119611    -19.122032
   1.35044    -19.132289    -19.134711
   1.36356    -19.144026    -19.146448
   1.37668    -19.154829    -19.157251
   1.38980    -19.164691    -19.167113
   1.40292    -19.173617    -19.176039
   1.41604    -19.181600    -19.184022
   1.42916    -19.188650    -19.191072
   1.44228    -19.194756    -19.197179
   1.45539    -19.199925    -19.202348
   1.46851    -19.204151    -19.206574
   1.48163    -19.207441    -19.209865
   1.49475    -19.209787    -19.212211
   1.50787    -19.211189    -19.213612
   1.52099    -19.211659    -19.214082
 
 
# Band-Index    2
   1.52099    -15.939494    -16.002071
   1.50787    -15.970048    -16.001936
   1.49475    -16.034083    -16.036541
   1.48163    -16.097442    -16.099819
   1.46851    -16.160038    -16.162391
   1.45539    -16.221851    -16.224190
   1.44228    -16.282864    -16.285193
   1.42916    -16.343073    -16.345394
   1.41604    -16.402472    -16.404787
   1.40292    -16.461051    -16.463362
   1.38980    -16.518805    -16.521113
   1.37668    -16.575729    -16.578034
   1.36356    -16.631819    -16.634122
   1.35044    -16.687068    -16.689369
   1.33732    -16.741475    -16.743775
   1.32420    -16.795030    -16.797329
   1.31108    -16.847736    -16.850034
   1.29796    -16.899578    -16.901875
   1.28484    -16.950563    -16.952859
   1.27173    -17.000683    -17.002979
   1.25861    -17.049941    -17.052236
   1.24549    -17.098330    -17.100625
   1.23237    -17.145847    -17.148141
   1.21925    -17.192488    -17.194783
   1.20613    -17.238251    -17.240545
   1.19301    -17.283134    -17.285428
   1.17989    -17.327129    -17.329423
   1.16677    -17.370241    -17.372535
   1.15365    -17.412466    -17.414759
   1.14053    -17.453797    -17.456091
   1.12741    -17.494240    -17.496534
   1.11429    -17.533789    -17.536083
   1.10117    -17.572445    -17.574740
   1.08806    -17.610200    -17.612494
   1.07494    -17.647055    -17.649350
   1.06182    -17.683008    -17.685303
   1.04870    -17.718063    -17.720359
   1.03558    -17.752211    -17.754507
   1.02246    -17.785446    -17.787743
   1.00934    -17.817778    -17.820075
   0.99622    -17.849203    -17.851501
   0.98310    -17.879719    -17.882017
   0.96998    -17.909322    -17.911621
   0.95686    -17.938013    -17.940312
   0.94374    -17.965790    -17.968090
   0.93062    -17.992651    -17.994951
   0.91751    -18.018593    -18.020894
   0.90439    -18.043611    -18.045913
   0.89127    -18.067712    -18.070013
   0.87815    -18.090470    -18.092882
   0.87815    -18.090470    -18.092882
   0.87159    -18.101105    -18.103319
   0.86503    -18.112109    -18.114322
   0.85847    -18.122894    -18.125107
   0.85191    -18.133451    -18.135664
   0.84535    -18.143782    -18.145994
   0.83879    -18.153878    -18.156091
   0.83223    -18.163742    -18.165955
   0.82567    -18.173377    -18.175590
   0.81911    -18.182783    -18.184996
   0.81255    -18.191956    -18.194170
   0.80599    -18.200900    -18.203113
   0.79943    -18.209609    -18.211823
   0.79287    -18.218088    -18.220302
   0.78631    -18.226336    -18.228550
   0.77975    -18.234352    -18.236566
   0.77319    -18.242135    -18.244349
   0.76663    -18.249690    -18.251905
   0.76007    -18.257011    -18.259226
   0.75351    -18.264102    -18.266317
   0.74694    -18.270963    -18.273177
   0.74038    -18.277590    -18.279805
   0.73382    -18.283987    -18.286201
   0.72726    -18.290147    -18.292362
   0.72070    -18.296077    -18.298292
   0.71414    -18.301775    -18.303990
   0.70758    -18.307242    -18.309457
   0.70102    -18.312474    -18.314689
   0.69446    -18.317479    -18.319695
   0.68790    -18.322250    -18.324465
   0.68134    -18.326787    -18.329003
   0.67478    -18.331092    -18.333308
   0.66822    -18.335166    -18.337381
   0.66166    -18.339005    -18.341220
   0.65510    -18.342612    -18.344828
   0.64854    -18.345988    -18.348204
   0.64198    -18.349130    -18.351346
   0.63542    -18.352040    -18.354256
   0.62886    -18.354716    -18.356931
   0.62230    -18.357159    -18.359375
   0.61574    -18.359371    -18.361587
   0.60918    -18.361351    -18.363566
   0.60262    -18.363098    -18.365314
   0.59606    -18.364613    -18.366829
   0.58950    -18.365894    -18.368110
   0.58294    -18.366941    -18.369157
   0.57638    -18.367757    -18.369973
   0.56982    -18.368341    -18.370557
   0.56326    -18.368688    -18.370904
   0.55670    -18.368806    -18.371022
   0.55670    -18.368806    -18.371022
   0.54534    -18.334884    -18.337284
   0.53398    -18.299660    -18.302061
   0.52262    -18.263747    -18.266148
   0.51126    -18.227157    -18.229558
   0.49989    -18.189884    -18.192285
   0.48853    -18.151934    -18.154334
   0.47717    -18.113305    -18.115705
   0.46581    -18.074016    -18.076415
   0.45445    -18.034042    -18.036441
   0.44309    -17.993393    -17.995791
   0.43173    -17.952071    -17.954468
   0.42037    -17.910079    -17.912475
   0.40900    -17.867423    -17.869819
   0.39764    -17.824095    -17.826491
   0.38628    -17.780104    -17.782498
   0.37492    -17.735446    -17.737841
   0.36356    -17.690127    -17.692521
   0.35220    -17.644152    -17.646546
   0.34084    -17.597515    -17.599908
   0.32948    -17.550231    -17.552623
   0.31811    -17.502281    -17.504673
   0.30675    -17.453679    -17.456070
   0.29539    -17.404431    -17.406822
   0.28403    -17.354529    -17.356919
   0.27267    -17.303978    -17.306368
   0.26131    -17.252786    -17.255176
   0.24995    -17.200955    -17.203346
   0.23859    -17.148480    -17.150870
   0.22722    -17.095369    -17.097760
   0.21586    -17.041625    -17.044016
   0.20450    -16.987245    -16.989637
   0.19314    -16.932239    -16.934631
   0.18178    -16.876606    -16.878998
   0.17042    -16.820357    -16.822751
   0.15906    -16.763486    -16.765881
   0.14770    -16.705999    -16.708395
   0.13633    -16.647897    -16.650296
   0.12497    -16.589188    -16.591589
   0.11361    -16.529881    -16.532284
   0.10225    -16.469974    -16.472380
   0.09089    -16.409467    -16.411878
   0.07953    -16.348377    -16.350793
   0.06817    -16.286700    -16.289121
   0.05681    -16.224443    -16.226873
   0.04544    -16.161613    -16.164054
   0.03408    -16.098222    -16.100680
   0.02272    -16.034288    -16.036796
   0.01136    -15.969891    -16.001971
   0.00000    -15.939494    -16.002071
 
 
# Band-Index    3
   0.00000    -15.908020    -15.911056
   0.01136    -15.940751    -15.972229
   0.02272    -15.969700    -16.001445
   0.03408    -16.000682    -16.004613
   0.04544    -16.031070    -16.033924
   0.05681    -16.060829    -16.063620
   0.06817    -16.089942    -16.092705
   0.07953    -16.118418    -16.121162
   0.09089    -16.146248    -16.148977
   0.10225    -16.173426    -16.176143
   0.11361    -16.199950    -16.202656
   0.12497    -16.225823    -16.228520
   0.13633    -16.251042    -16.253729
   0.14770    -16.275603    -16.278283
   0.15906    -16.299506    -16.302178
   0.17042    -16.322746    -16.325411
   0.18178    -16.345325    -16.347985
   0.19314    -16.367237    -16.369892
   0.20450    -16.388485    -16.391135
   0.21586    -16.409069    -16.411715
   0.22722    -16.428986    -16.431628
   0.23859    -16.448235    -16.450874
   0.24995    -16.466815    -16.469450
   0.26131    -16.484726    -16.487359
   0.27267    -16.501964    -16.504595
   0.28403    -16.518529    -16.521159
   0.29539    -16.534425    -16.537053
   0.30675    -16.549641    -16.552268
   0.31811    -16.564190    -16.566816
   0.32948    -16.578066    -16.580692
   0.34084    -16.591264    -16.593890
   0.35220    -16.603789    -16.606415
   0.36356    -16.615637    -16.618263
   0.37492    -16.626808    -16.629435
   0.38628    -16.637306    -16.639934
   0.39764    -16.647126    -16.649755
   0.40900    -16.656271    -16.658900
   0.42037    -16.664736    -16.667366
   0.43173    -16.672526    -16.675158
   0.44309    -16.679644    -16.682276
   0.45445    -16.686077    -16.688711
   0.46581    -16.691835    -16.694470
   0.47717    -16.696913    -16.699549
   0.48853    -16.701317    -16.703954
   0.49989    -16.705041    -16.707679
   0.51126    -16.708092    -16.710730
   0.52262    -16.710461    -16.713100
   0.53398    -16.712152    -16.714791
   0.54534    -16.713167    -16.715807
   0.55670    -16.713505    -16.716145
   0.55670    -16.713505    -16.716145
   0.56326    -16.745587    -16.747994
   0.56982    -16.778617    -16.781019
   0.57638    -16.811451    -16.813850
   0.58294    -16.844078    -16.846476
   0.58950    -16.876499    -16.878895
   0.59606    -16.908712    -16.911108
   0.60262    -16.940717    -16.943112
   0.60918    -16.972509    -16.974903
   0.61574    -17.004096    -17.006489
   0.62230    -17.035472    -17.037866
   0.62886    -17.066638    -17.069031
   0.63542    -17.097590    -17.099983
   0.64198    -17.128333    -17.130725
   0.64854    -17.158864    -17.161256
   0.65510    -17.189179    -17.191572
   0.66166    -17.219283    -17.221675
   0.66822    -17.249171    -17.251563
   0.67478    -17.278838    -17.281230
   0.68134    -17.308295    -17.310687
   0.68790    -17.337541    -17.339933
   0.69446    -17.366572    -17.368964
   0.70102    -17.395376    -17.397768
   0.70758    -17.423966    -17.426359
   0.71414    -17.452347    -17.454740
   0.72070    -17.480510    -17.482903
   0.72726    -17.508455    -17.510848
   0.73382    -17.536183    -17.538576
   0.74038    -17.563686    -17.566080
   0.74694    -17.590975    -17.593369
   0.75351    -17.618045    -17.620439
   0.76007    -17.644893    -17.647287
   0.76663    -17.671523    -17.673917
   0.77319    -17.697933    -17.700328
   0.77975    -17.724119    -17.726514
   0.78631    -17.750088    -17.752483
   0.79287    -17.775834    -17.778229
   0.79943    -17.801355    -17.803751
   0.80599    -17.826659    -17.829055
   0.81255    -17.851737    -17.854134
   0.81911    -17.876596    -17.878993
   0.82567    -17.901232    -17.903629
   0.83223    -17.925644    -17.928041
   0.83879    -17.949833    -17.952231
   0.84535    -17.973798    -17.976196
   0.85191    -17.997533    -17.999932
   0.85847    -18.021036    -18.023435
   0.86503    -18.044317    -18.046715
   0.87159    -18.067357    -18.069754
   0.87815    -18.088804    -18.091091
   0.87815    -18.088804    -18.091091
   0.89127    -18.066605    -18.069097
   0.90439    -18.042508    -18.045002
   0.91751    -18.017494    -18.019988
   0.93062    -17.991554    -17.994048
   0.94374    -17.964696    -17.967190
   0.95686    -17.936922    -17.939416
   0.96998    -17.908234    -17.910728
   0.98310    -17.878633    -17.881127
   0.99622    -17.848119    -17.850613
   1.00934    -17.816696    -17.819190
   1.02246    -17.784366    -17.786860
   1.03558    -17.751132    -17.753625
   1.04870    -17.716986    -17.719479
   1.06182    -17.681933    -17.684425
   1.07494    -17.645981    -17.648473
   1.08806    -17.609127    -17.611619
   1.10117    -17.571373    -17.573865
   1.11429    -17.532717    -17.535209
   1.12741    -17.493168    -17.495659
   1.14053    -17.452726    -17.455216
   1.15365    -17.411395    -17.413885
   1.16677    -17.369170    -17.371660
   1.17989    -17.326057    -17.328546
   1.19301    -17.282063    -17.284552
   1.20613    -17.237181    -17.239669
   1.21925    -17.191419    -17.193907
   1.23237    -17.144778    -17.147266
   1.24549    -17.097261    -17.099750
   1.25861    -17.048874    -17.051363
   1.27173    -16.999618    -17.002108
   1.28484    -16.949500    -16.951990
   1.29796    -16.898517    -16.901008
   1.31108    -16.846679    -16.849170
   1.32420    -16.793977    -16.796470
   1.33732    -16.740428    -16.742922
   1.35044    -16.686025    -16.688521
   1.36356    -16.630781    -16.633280
   1.37668    -16.574695    -16.577197
   1.38980    -16.517776    -16.520280
   1.40292    -16.460025    -16.462532
   1.41604    -16.401445    -16.403957
   1.42916    -16.342044    -16.344560
   1.44228    -16.281829    -16.284350
   1.45539    -16.220806    -16.223334
   1.46851    -16.158977    -16.161514
   1.48163    -16.096356    -16.098905
   1.49475    -16.032957    -16.035528
   1.50787    -15.968807    -15.972191
   1.52099    -15.908020    -15.911056
 
 
# Band-Index    4
   1.52099    -15.907113    -15.910517
   1.50787    -15.938907    -15.971365
   1.49475    -15.938280    -16.000957
   1.48163    -15.937118    -15.999916
   1.46851    -15.935481    -15.998362
   1.45539    -15.933380    -15.996353
   1.44228    -15.930817    -15.993899
   1.42916    -15.927798    -15.991005
   1.41604    -15.924327    -15.987676
   1.40292    -15.920411    -15.983916
   1.38980    -15.916053    -15.979732
   1.37668    -15.911261    -15.975128
   1.36356    -15.906042    -15.970111
   1.35044    -15.900402    -15.964689
   1.33732    -15.894351    -15.958869
   1.32420    -15.887896    -15.952660
   1.31108    -15.881047    -15.946070
   1.29796    -15.873814    -15.939110
   1.28484    -15.866208    -15.931789
   1.27173    -15.858240    -15.924119
   1.25861    -15.849922    -15.916112
   1.24549    -15.841266    -15.907780
   1.23237    -15.832288    -15.899136
   1.21925    -15.823001    -15.890194
   1.20613    -15.813420    -15.880969
   1.19301    -15.803561    -15.871476
   1.17989    -15.793442    -15.861731
   1.16677    -15.783080    -15.851753
   1.15365    -15.772494    -15.841558
   1.14053    -15.761703    -15.831166
   1.12741    -15.750728    -15.820596
   1.11429    -15.739591    -15.809871
   1.10117    -15.728314    -15.799010
   1.08806    -15.716922    -15.788039
   1.07494    -15.705439    -15.776981
   1.06182    -15.693893    -15.765862
   1.04870    -15.682310    -15.754709
   1.03558    -15.670720    -15.743550
   1.02246    -15.659153    -15.732416
   1.00934    -15.647643    -15.721338
   0.99622    -15.636222    -15.710350
   0.98310    -15.624926    -15.699487
   0.96998    -15.613792    -15.688786
   0.95686    -15.602859    -15.678285
   0.94374    -15.592169    -15.668027
   0.93062    -15.581761    -15.658053
   0.91751    -15.571680    -15.648407
   0.90439    -15.561972    -15.639137
   0.89127    -15.552698    -15.630309
   0.87815    -15.546371    -15.624452
   0.87815    -15.546371    -15.624452
   0.87159    -15.547748    -15.625502
   0.86503    -15.551909    -15.629446
   0.85847    -15.556026    -15.633347
   0.85191    -15.560081    -15.637190
   0.84535    -15.564072    -15.640973
   0.83879    -15.567996    -15.644692
   0.83223    -15.571852    -15.648346
