#K-Path          Energy     s     py     pz     px    dxy    dyz    dz2    dxz  x2-y2    tot
# NKPTS & NBANDS: 150 160
# Band-Index    1
   0.00000    -19.211659  0.644  0.000  0.000  0.000  0.000  0.000  0.000  0.000  0.000  0.644
   0.01136    -19.211306  0.644  0.000  0.000  0.000  0.000  0.000  0.000  0.000  0.000  0.644
   0.02272    -19.210252  0.644  0.000  0.000  0.000  0.000  0.000  0.000  0.000  0.000  0.644
   0.03408    -19.208494  0.644  0.000  0.000  0.000  0.000  0.000  0.000  0.000  0.000  0.644
   0.04544    -19.206031  0.644  0.000  0.000  0.000  0.000  0.000  0.000  0.000  0.000  0.644
   0.05681    -19.202866  0.644  0.000  0.000  0.000  0.000  0.000  0.000  0.000  0.000  0.644
   0.06817    -19.198992  0.644  0.000  0.000  0.000  0.000  0.000  0.000  0.000  0.000  0.644
   0.07953    -19.194411  0.644  0.000  0.000  0.000  0.000  0.000  0.000  0.000  0.000  0.644
   0.09089    -19.189123  0.644  0.000  0.000  0.000  0.000  0.000  0.000  0.000  0.000  0.644
   0.10225    -19.183132  0.644  0.000  0.000  0.000  0.000  0.000  0.000  0.000  0.000  0.644
   0.11361    -19.176437  0.644  0.000  0.000  0.000  0.000  0.000  0.000  0.000  0.000  0.644
   0.12497    -19.169037  0.644  0.000  0.000  0.000  0.000  0.000  0.000  0.000  0.000  0.644
   0.13633    -19.160936  0.644  0.000  0.000  0.000  0.000  0.000  0.000  0.000  0.000  0.644
   0.14770    -19.152127  0.644  0.000  0.000  0.000  0.000  0.000  0.000  0.000  0.000  0.644
   0.15906    -19.142617  0.644  0.000  0.000  0.000  0.000  0.000  0.000  0.000  0.000  0.644
   0.17042    -19.132404  0.644  0.000  0.000  0.000  0.000  0.000  0.000  0.000  0.000  0.644
   0.18178    -19.121486  0.644  0.000  0.000  0.000  0.000  0.000  0.000  0.000  0.000  0.644
   0.19314    -19.109864  0.644  0.000  0.000  0.000  0.000  0.000  0.000  0.000  0.000  0.644
   0.20450    -19.097545  0.644  0.000  0.000  0.000  0.000  0.000  0.000  0.000  0.000  0.644
   0.21586    -19.084523  0.644  0.000  0.000  0.000  0.000  0.000  0.000  0.000  0.000  0.644
   0.22722    -19.070797  0.644  0.000  0.000  0.000  0.000  0.000  0.000  0.000  0.000  0.644
   0.23859    -19.056373  0.644  0.000  0.000  0.000  0.000  0.000  0.000  0.000  0.000  0.644
   0.24995    -19.041247  0.644  0.000  0.000  0.000  0.000  0.000  0.000  0.000  0.000  0.644
   0.26131    -19.025414  0.643  0.000  0.000  0.000  0.000  0.000  0.000  0.000  0.000  0.644
   0.27267    -19.008882  0.642  0.000  0.000  0.000  0.000  0.000  0.000  0.000  0.000  0.644
   0.28403    -18.991650  0.638  0.000  0.000  0.000  0.000  0.000  0.000  0.000  0.000  0.644
   0.29539    -18.973720  0.635  0.000  0.000  0.000  0.000  0.000  0.000  0.000  0.000  0.644
   0.30675    -18.955088  0.633  0.000  0.000  0.000  0.000  0.000  0.000  0.000  0.000  0.644
   0.31811    -18.935755  0.631  0.000  0.000  0.000  0.000  0.000  0.000  0.000  0.000  0.644
   0.32948    -18.915727  0.630  0.000  0.000  0.000  0.000  0.000  0.000  0.000  0.000  0.644
   0.34084    -18.895001  0.630  0.000  0.014  0.000  0.000  0.000  0.000  0.000  0.000  0.644
   0.35220    -18.873579  0.630  0.000  0.014  0.000  0.000  0.000  0.000  0.000  0.000  0.644
   0.36356    -18.851459  0.630  0.000  0.014  0.014  0.000  0.000  0.000  0.000  0.000  0.644
   0.37492    -18.828649  0.630  0.000  0.014  0.014  0.000  0.000  0.000  0.000  0.000  0.644
   0.38628    -18.805141  0.630  0.000  0.014  0.014  0.000  0.000  0.000  0.000  0.000  0.644
   0.39764    -18.780928  0.630  0.000  0.014  0.014  0.000  0.000  0.000  0.000  0.000  0.644
   0.40900    -18.756027  0.630  0.000  0.014  0.014  0.000  0.000  0.000  0.000  0.000  0.644
   0.42037    -18.730433  0.630  0.000  0.014  0.014  0.000  0.000  0.000  0.000  0.000  0.646
   0.43173    -18.704149  0.630  0.000  0.014  0.014  0.000  0.000  0.000  0.000  0.000  0.647
   0.44309    -18.677169  0.630  0.000  0.014  0.014  0.000  0.000  0.000  0.000  0.000  0.647
   0.45445    -18.649498  0.630  0.000  0.014  0.014  0.000  0.000  0.000  0.000  0.000  0.649
   0.46581    -18.621134  0.630  0.000  0.014  0.014  0.000  0.000  0.000  0.000  0.000  0.649
   0.47717    -18.592079  0.627  0.000  0.014  0.014  0.000  0.000  0.000  0.000  0.000  0.650
   0.48853    -18.562337  0.624  0.000  0.014  0.014  0.000  0.000  0.000  0.000  0.000  0.652
   0.49989    -18.531904  0.622  0.000  0.014  0.014  0.000  0.000  0.000  0.000  0.000  0.652
   0.51126    -18.500788  0.622  0.000  0.014  0.014  0.000  0.000  0.000  0.000  0.000  0.652
   0.52262    -18.468981  0.622  0.000  0.014  0.014  0.000  0.000  0.000  0.000  0.000  0.652
   0.53398    -18.436486  0.621  0.000  0.014  0.014  0.000  0.000  0.000  0.000  0.000  0.652
   0.54534    -18.403310  0.619  0.000  0.014  0.014  0.000  0.000  0.000  0.000  0.000  0.652
   0.55670    -18.370075  0.616  0.000  0.018  0.016  0.000  0.000  0.000  0.000  0.000  0.654
   0.55670    -18.370075  0.616  0.000  0.018  0.016  0.000  0.000  0.000  0.000  0.000  0.654
   0.56326    -18.369957  0.616  0.000  0.018  0.016  0.000  0.000  0.000  0.000  0.000  0.654
   0.56982    -18.369610  0.616  0.000  0.018  0.016  0.000  0.000  0.000  0.000  0.000  0.654
   0.57638    -18.369026  0.616  0.000  0.018  0.016  0.000  0.000  0.000  0.000  0.000  0.654
   0.58294    -18.368211  0.616  0.000  0.018  0.016  0.000  0.000  0.000  0.000  0.000  0.654
   0.58950    -18.367163  0.616  0.000  0.018  0.016  0.000  0.000  0.000  0.000  0.000  0.654
   0.59606    -18.365882  0.616  0.000  0.018  0.016  0.000  0.000  0.000  0.000  0.000  0.654
   0.60262    -18.364368  0.616  0.000  0.018  0.016  0.000  0.000  0.000  0.000  0.000  0.654
   0.60918    -18.362620  0.615  0.000  0.018  0.016  0.000  0.000  0.000  0.000  0.000  0.654
   0.61574    -18.360640  0.615  0.000  0.018  0.016  0.000  0.000  0.000  0.000  0.000  0.654
   0.62230    -18.358429  0.615  0.000  0.018  0.016  0.000  0.000  0.000  0.000  0.000  0.654
   0.62886    -18.355985  0.615  0.000  0.018  0.016  0.000  0.000  0.000  0.000  0.000  0.654
   0.63542    -18.353310  0.615  0.000  0.018  0.016  0.000  0.000  0.000  0.000  0.000  0.654
   0.64198    -18.350400  0.615  0.000  0.018  0.016  0.000  0.000  0.000  0.000  0.000  0.654
   0.64854    -18.347258  0.615  0.000  0.018  0.016  0.000  0.000  0.000  0.000  0.000  0.654
   0.65510    -18.343882  0.614  0.000  0.018  0.016  0.000  0.000  0.000  0.000  0.000  0.654
   0.66166    -18.340275  0.614  0.000  0.019  0.016  0.000  0.000  0.000  0.000  0.000  0.654
   0.66822    -18.336436  0.614  0.000  0.019  0.016  0.000  0.000  0.000  0.000  0.000  0.654
   0.67478    -18.332363  0.614  0.000  0.019  0.016  0.000  0.000  0.000  0.000  0.000  0.655
   0.68134    -18.328058  0.614  0.000  0.019  0.016  0.000  0.000  0.000  0.000  0.000  0.655
   0.68790    -18.323521  0.614  0.000  0.019  0.016  0.000  0.000  0.000  0.000  0.000  0.655
   0.69446    -18.318750  0.614  0.000  0.019  0.016  0.000  0.000  0.000  0.000  0.000  0.655
   0.70102    -18.313745  0.614  0.000  0.019  0.016  0.000  0.000  0.000  0.000  0.000  0.655
   0.70758    -18.308513  0.614  0.000  0.019  0.016  0.000  0.000  0.000  0.000  0.000  0.655
   0.71414    -18.303046  0.613  0.000  0.019  0.016  0.000  0.000  0.000  0.000  0.000  0.655
   0.72070    -18.297348  0.613  0.000  0.020  0.016  0.000  0.000  0.000  0.000  0.000  0.655
   0.72726    -18.291418  0.613  0.000  0.020  0.016  0.000  0.000  0.000  0.000  0.000  0.655
   0.73382    -18.285258  0.613  0.000  0.020  0.016  0.000  0.000  0.000  0.000  0.000  0.655
   0.74038    -18.278861  0.613  0.000  0.020  0.016  0.000  0.000  0.000  0.000  0.000  0.655
   0.74694    -18.272234  0.613  0.000  0.021  0.016  0.000  0.000  0.000  0.000  0.000  0.655
   0.75351    -18.265373  0.613  0.000  0.021  0.016  0.000  0.000  0.000  0.000  0.000  0.655
   0.76007    -18.258282  0.613  0.000  0.021  0.016  0.000  0.000  0.000  0.000  0.000  0.655
   0.76663    -18.250961  0.613  0.000  0.021  0.016  0.000  0.000  0.000  0.000  0.000  0.655
   0.77319    -18.243406  0.613  0.002  0.021  0.016  0.000  0.000  0.000  0.000  0.000  0.656
   0.77975    -18.235623  0.613  0.003  0.021  0.016  0.000  0.000  0.000  0.000  0.000  0.657
   0.78631    -18.227606  0.613  0.004  0.021  0.016  0.000  0.000  0.000  0.000  0.000  0.657
   0.79287    -18.219358  0.613  0.004  0.021  0.016  0.000  0.000  0.000  0.000  0.000  0.657
   0.79943    -18.210879  0.612  0.004  0.021  0.016  0.000  0.000  0.000  0.000  0.000  0.657
   0.80599    -18.202169  0.612  0.005  0.021  0.017  0.000  0.000  0.000  0.000  0.000  0.656
   0.81255    -18.193226  0.612  0.005  0.021  0.017  0.000  0.000  0.000  0.000  0.000  0.656
   0.81911    -18.184053  0.611  0.006  0.021  0.017  0.000  0.000  0.000  0.000  0.000  0.655
   0.82567    -18.174646  0.611  0.006  0.021  0.017  0.000  0.000  0.000  0.000  0.000  0.655
   0.83223    -18.165011  0.611  0.006  0.021  0.017  0.000  0.000  0.000  0.000  0.000  0.655
   0.83879    -18.155147  0.611  0.007  0.021  0.017  0.000  0.000  0.000  0.000  0.000  0.655
   0.84535    -18.145050  0.611  0.007  0.021  0.017  0.000  0.000  0.000  0.000  0.000  0.654
   0.85191    -18.134720  0.612  0.007  0.021  0.017  0.000  0.000  0.000  0.000  0.000  0.654
   0.85847    -18.124162  0.610  0.007  0.021  0.017  0.000  0.000  0.000  0.000  0.000  0.655
   0.86503    -18.113376  0.609  0.007  0.021  0.017  0.000  0.000  0.000  0.000  0.000  0.658
   0.87159    -18.102370  0.609  0.007  0.021  0.017  0.000  0.000  0.000  0.000  0.000  0.656
   0.87815    -18.091909  0.609  0.016  0.019  0.011  0.000  0.000  0.000  0.000  0.000  0.656
   0.87815    -18.091909  0.609  0.016  0.019  0.011  0.000  0.000  0.000  0.000  0.000  0.656
   0.89127    -18.135481  0.612  0.010  0.028  0.010  0.000  0.000  0.000  0.000  0.000  0.657
   0.90439    -18.179564  0.612  0.009  0.028  0.002  0.000  0.000  0.000  0.000  0.000  0.655
   0.91751    -18.222753  0.612  0.002  0.028  0.000  0.000  0.000  0.000  0.000  0.000  0.654
   0.93062    -18.265043  0.614  0.000  0.028  0.000  0.000  0.000  0.000  0.000  0.000  0.653
   0.94374    -18.306426  0.616  0.000  0.028  0.000  0.000  0.000  0.000  0.000  0.000  0.654
   0.95686    -18.346899  0.616  0.000  0.028  0.000  0.000  0.000  0.000  0.000  0.000  0.654
   0.96998    -18.386462  0.616  0.000  0.028  0.000  0.000  0.000  0.000  0.000  0.000  0.654
   0.98310    -18.425114  0.618  0.000  0.028  0.000  0.000  0.000  0.000  0.000  0.000  0.653
   0.99622    -18.462843  0.619  0.000  0.028  0.000  0.000  0.000  0.000  0.000  0.000  0.653
   1.00934    -18.499658  0.619  0.000  0.014  0.000  0.000  0.000  0.000  0.000  0.000  0.652
   1.02246    -18.535567  0.623  0.000  0.014  0.000  0.000  0.000  0.000  0.000  0.000  0.652
   1.03558    -18.570549  0.624  0.000  0.014  0.000  0.000  0.000  0.000  0.000  0.000  0.652
   1.04870    -18.604620  0.629  0.000  0.014  0.000  0.000  0.000  0.000  0.000  0.000  0.651
   1.06182    -18.637767  0.630  0.000  0.014  0.000  0.000  0.000  0.000  0.000  0.000  0.649
   1.07494    -18.669999  0.630  0.000  0.014  0.000  0.000  0.000  0.000  0.000  0.000  0.647
   1.08806    -18.701306  0.630  0.000  0.014  0.000  0.000  0.000  0.000  0.000  0.000  0.647
   1.10117    -18.731688  0.630  0.000  0.014  0.000  0.000  0.000  0.000  0.000  0.000  0.647
   1.11429    -18.761141  0.630  0.000  0.014  0.000  0.000  0.000  0.000  0.000  0.000  0.646
   1.12741    -18.789674  0.630  0.000  0.014  0.000  0.000  0.000  0.000  0.000  0.000  0.644
   1.14053    -18.817276  0.630  0.000  0.014  0.000  0.000  0.000  0.000  0.000  0.000  0.644
   1.15365    -18.843957  0.630  0.000  0.014  0.000  0.000  0.000  0.000  0.000  0.000  0.644
   1.16677    -18.869703  0.630  0.000  0.014  0.000  0.000  0.000  0.000  0.000  0.000  0.644
   1.17989    -18.894520  0.630  0.000  0.014  0.000  0.000  0.000  0.000  0.000  0.000  0.644
   1.19301    -18.918403  0.630  0.000  0.014  0.000  0.000  0.000  0.000  0.000  0.000  0.644
   1.20613    -18.941360  0.633  0.000  0.014  0.000  0.000  0.000  0.000  0.000  0.000  0.644
   1.21925    -18.963388  0.633  0.000  0.014  0.000  0.000  0.000  0.000  0.000  0.000  0.644
   1.23237    -18.984487  0.638  0.000  0.000  0.000  0.000  0.000  0.000  0.000  0.000  0.644
   1.24549    -19.004649  0.641  0.000  0.000  0.000  0.000  0.000  0.000  0.000  0.000  0.644
   1.25861    -19.023880  0.643  0.000  0.000  0.000  0.000  0.000  0.000  0.000  0.000  0.644
   1.27173    -19.042169  0.644  0.000  0.000  0.000  0.000  0.000  0.000  0.000  0.000  0.644
   1.28484    -19.059530  0.644  0.000  0.000  0.000  0.000  0.000  0.000  0.000  0.000  0.644
   1.29796    -19.075955  0.644  0.000  0.000  0.000  0.000  0.000  0.000  0.000  0.000  0.644
   1.31108    -19.091439  0.644  0.000  0.000  0.000  0.000  0.000  0.000  0.000  0.000  0.644
   1.32420    -19.105995  0.644  0.000  0.000  0.000  0.000  0.000  0.000  0.000  0.000  0.644
   1.33732    -19.119611  0.644  0.000  0.000  0.000  0.000  0.000  0.000  0.000  0.000  0.644
   1.35044    -19.132289  0.644  0.000  0.000  0.000  0.000  0.000  0.000  0.000  0.000  0.644
   1.36356    -19.144026  0.644  0.000  0.000  0.000  0.000  0.000  0.000  0.000  0.000  0.644
   1.37668    -19.154829  0.644  0.000  0.000  0.000  0.000  0.000  0.000  0.000  0.000  0.644
   1.38980    -19.164691  0.644  0.000  0.000  0.000  0.000  0.000  0.000  0.000  0.000  0.644
   1.40292    -19.173617  0.644  0.000  0.000  0.000  0.000  0.000  0.000  0.000  0.000  0.644
   1.41604    -19.181600  0.644  0.000  0.000  0.000  0.000  0.000  0.000  0.000  0.000  0.644
   1.42916    -19.188650  0.644  0.000  0.000  0.000  0.000  0.000  0.000  0.000  0.000  0.644
   1.44228    -19.194756  0.644  0.000  0.000  0.000  0.000  0.000  0.000  0.000  0.000  0.644
   1.45539    -19.199925  0.644  0.000  0.000  0.000  0.000  0.000  0.000  0.000  0.000  0.644
   1.46851    -19.204151  0.644  0.000  0.000  0.000  0.000  0.000  0.000  0.000  0.000  0.644
   1.48163    -19.207441  0.644  0.000  0.000  0.000  0.000  0.000  0.000  0.000  0.000  0.644
   1.49475    -19.209787  0.644  0.000  0.000  0.000  0.000  0.000  0.000  0.000  0.000  0.644
   1.50787    -19.211189  0.644  0.000  0.000  0.000  0.000  0.000  0.000  0.000  0.000  0.644
   1.52099    -19.211659  0.644  0.000  0.000  0.000  0.000  0.000  0.000  0.000  0.000  0.644
 
 
# Band-Index    2
   1.52099    -15.939494  0.008  0.000  0.000  0.000  0.000  0.000  0.000  0.000  0.000  0.008
   1.50787    -15.970048  0.545  0.015  0.068  0.044  0.000  0.000  0.000  0.000  0.000  0.676
   1.49475    -16.034083  0.547  0.019  0.068  0.044  0.000  0.000  0.000  0.000  0.000  0.680
   1.48163    -16.097442  0.550  0.021  0.063  0.042  0.000  0.000  0.000  0.000  0.000  0.677
   1.46851    -16.160038  0.551  0.022  0.061  0.042  0.000  0.000  0.000  0.000  0.000  0.677
   1.45539    -16.221851  0.553  0.024  0.059  0.037  0.000  0.000  0.000  0.000  0.000  0.678
   1.44228    -16.282864  0.556  0.025  0.059  0.035  0.000  0.000  0.000  0.000  0.000  0.675
   1.42916    -16.343073  0.558  0.028  0.055  0.034  0.000  0.000  0.000  0.000  0.000  0.676
   1.41604    -16.402472  0.560  0.028  0.055  0.032  0.000  0.000  0.000  0.000  0.000  0.674
   1.40292    -16.461051  0.562  0.028  0.054  0.030  0.000  0.000  0.000  0.000  0.000  0.673
   1.38980    -16.518805  0.563  0.031  0.052  0.028  0.000  0.000  0.000  0.000  0.000  0.673
   1.37668    -16.575729  0.564  0.032  0.051  0.028  0.000  0.000  0.000  0.000  0.000  0.672
   1.36356    -16.631819  0.566  0.032  0.049  0.025  0.000  0.000  0.000  0.000  0.000  0.671
   1.35044    -16.687068  0.567  0.033  0.048  0.025  0.000  0.000  0.000  0.000  0.000  0.671
   1.33732    -16.741475  0.568  0.033  0.046  0.023  0.000  0.000  0.000  0.000  0.000  0.670
   1.32420    -16.795030  0.569  0.033  0.045  0.023  0.000  0.000  0.000  0.000  0.000  0.669
   1.31108    -16.847736  0.571  0.033  0.042  0.022  0.000  0.000  0.000  0.000  0.000  0.670
   1.29796    -16.899578  0.573  0.034  0.041  0.022  0.000  0.000  0.000  0.000  0.000  0.670
   1.28484    -16.950563  0.574  0.033  0.041  0.022  0.000  0.000  0.000  0.000  0.000  0.670
   1.27173    -17.000683  0.576  0.033  0.039  0.022  0.000  0.000  0.000  0.000  0.000  0.669
   1.25861    -17.049941  0.577  0.033  0.038  0.022  0.000  0.000  0.000  0.000  0.000  0.667
   1.24549    -17.098330  0.579  0.032  0.037  0.022  0.000  0.000  0.000  0.000  0.000  0.666
   1.23237    -17.145847  0.580  0.030  0.035  0.022  0.000  0.000  0.000  0.000  0.000  0.666
   1.21925    -17.192488  0.582  0.029  0.033  0.022  0.000  0.000  0.000  0.000  0.000  0.665
   1.20613    -17.238251  0.584  0.028  0.031  0.021  0.000  0.000  0.000  0.000  0.000  0.663
   1.19301    -17.283134  0.584  0.028  0.030  0.021  0.000  0.000  0.000  0.000  0.000  0.663
   1.17989    -17.327129  0.584  0.028  0.029  0.021  0.000  0.000  0.000  0.000  0.000  0.663
   1.16677    -17.370241  0.586  0.028  0.029  0.021  0.000  0.000  0.000  0.000  0.000  0.663
   1.15365    -17.412466  0.587  0.027  0.028  0.021  0.000  0.000  0.000  0.000  0.000  0.662
   1.14053    -17.453797  0.590  0.026  0.026  0.021  0.000  0.000  0.000  0.000  0.000  0.662
   1.12741    -17.494240  0.590  0.025  0.025  0.021  0.000  0.000  0.000  0.000  0.000  0.661
   1.11429    -17.533789  0.592  0.025  0.023  0.021  0.000  0.000  0.000  0.000  0.000  0.661
   1.10117    -17.572445  0.593  0.024  0.023  0.021  0.000  0.000  0.000  0.000  0.000  0.661
   1.08806    -17.610200  0.595  0.023  0.023  0.021  0.000  0.000  0.000  0.000  0.000  0.662
   1.07494    -17.647055  0.597  0.023  0.021  0.021  0.000  0.000  0.000  0.000  0.000  0.661
   1.06182    -17.683008  0.598  0.023  0.020  0.021  0.000  0.000  0.000  0.000  0.000  0.661
   1.04870    -17.718063  0.599  0.023  0.020  0.021  0.000  0.000  0.000  0.000  0.000  0.661
   1.03558    -17.752211  0.599  0.022  0.016  0.021  0.000  0.000  0.000  0.000  0.000  0.661
   1.02246    -17.785446  0.600  0.021  0.016  0.021  0.000  0.000  0.000  0.000  0.000  0.660
   1.00934    -17.817778  0.600  0.021  0.014  0.021  0.000  0.000  0.000  0.000  0.000  0.659
   0.99622    -17.849203  0.601  0.020  0.014  0.022  0.000  0.000  0.000  0.000  0.000  0.658
   0.98310    -17.879719  0.602  0.017  0.013  0.022  0.000  0.000  0.000  0.000  0.000  0.657
   0.96998    -17.909322  0.602  0.017  0.013  0.022  0.000  0.000  0.000  0.000  0.000  0.657
   0.95686    -17.938013  0.602  0.017  0.013  0.022  0.000  0.000  0.000  0.000  0.000  0.656
   0.94374    -17.965790  0.607  0.017  0.011  0.023  0.000  0.000  0.000  0.000  0.000  0.658
   0.93062    -17.992651  0.608  0.017  0.009  0.023  0.000  0.000  0.000  0.000  0.000  0.658
   0.91751    -18.018593  0.608  0.016  0.008  0.023  0.000  0.000  0.000  0.000  0.000  0.658
   0.90439    -18.043611  0.607  0.016  0.008  0.022  0.000  0.000  0.000  0.000  0.000  0.656
   0.89127    -18.067712  0.608  0.016  0.008  0.022  0.000  0.000  0.000  0.000  0.000  0.656
   0.87815    -18.090470  0.607  0.011  0.010  0.024  0.000  0.000  0.000  0.000  0.000  0.657
   0.87815    -18.090470  0.607  0.011  0.010  0.024  0.000  0.000  0.000  0.000  0.000  0.657
   0.87159    -18.101105  0.609  0.008  0.020  0.018  0.000  0.000  0.000  0.000  0.000  0.656
   0.86503    -18.112109  0.609  0.007  0.020  0.018  0.000  0.000  0.000  0.000  0.000  0.657
   0.85847    -18.122894  0.610  0.007  0.020  0.018  0.000  0.000  0.000  0.000  0.000  0.655
   0.85191    -18.133451  0.610  0.007  0.020  0.018  0.000  0.000  0.000  0.000  0.000  0.655
   0.84535    -18.143782  0.611  0.007  0.020  0.018  0.000  0.000  0.000  0.000  0.000  0.655
   0.83879    -18.153878  0.611  0.006  0.020  0.018  0.000  0.000  0.000  0.000  0.000  0.654
   0.83223    -18.163742  0.612  0.006  0.020  0.018  0.000  0.000  0.000  0.000  0.000  0.654
