# distance  frequency (bands are separated by blank lines)
# End points of segments: 
#   0.00000000 0.16813040 0.26520050 0.45934080 
0.000000 -0.017480
0.003363 0.037856
0.006725 0.081205
0.010088 0.122546
0.013450 0.162629
0.016813 0.201379
0.020176 0.238632
0.023538 0.274231
0.026901 0.308055
0.030263 0.340026
0.033626 0.370115
0.036989 0.398339
0.040351 0.424763
0.043714 0.449495
0.047077 0.472685
0.050439 0.494517
0.053802 0.515207
0.057164 0.534998
0.060527 0.554153
0.063890 0.572949
0.067252 0.591668
0.070615 0.610592
0.073977 0.629993
0.077340 0.650124
0.080703 0.671209
0.084065 0.693441
0.087428 0.716965
0.090790 0.741881
0.094153 0.768238
0.097516 0.796029
0.100878 0.825195
0.104241 0.855625
0.107604 0.887159
0.110966 0.919592
0.114329 0.952682
0.117691 0.986153
0.121054 1.019700
0.124416 1.052998
0.127779 1.085707
0.131142 1.117479
0.134504 1.147961
0.137867 1.176805
0.141230 1.203671
0.144592 1.228238
0.147955 1.250202
0.151317 1.269288
0.154680 1.285255
0.158043 1.297895
0.161405 1.307045
0.164768 1.312583
0.168130 1.314438

0.168130 1.314438
0.170072 1.313960
0.172013 1.312527
0.173955 1.310141
0.175896 1.306806
0.177837 1.302525
0.179779 1.297307
0.181720 1.291158
0.183662 1.284089
0.185603 1.276111
0.187544 1.267239
0.189486 1.257490
0.191427 1.246883
0.193369 1.235440
0.195310 1.223187
0.197251 1.210152
0.199193 1.196369
0.201134 1.181874
0.203076 1.166708
0.205017 1.150916
0.206958 1.134549
0.208900 1.117662
0.210841 1.100314
0.212783 1.082571
0.214724 1.064503
0.216666 1.046185
0.218607 1.027699
0.220548 1.009129
0.222490 0.990564
0.224431 0.972100
0.226373 0.953831
0.228314 0.935859
0.230255 0.918283
0.232197 0.901205
0.234138 0.884726
0.236079 0.868942
0.238021 0.853949
0.239962 0.839832
0.241904 0.826672
0.243845 0.814538
0.245786 0.803487
0.247728 0.793564
0.249669 0.784797
0.251611 0.777201
0.253552 0.770771
0.255493 0.765488
0.257435 0.761315
0.259376 0.758200
0.261318 0.756077
0.263259 0.754869
0.265201 0.754488

0.265201 0.754488
0.269083 0.755813
0.272966 0.759230
0.276849 0.763895
0.280732 0.769002
0.284615 0.773829
0.288497 0.777764
0.292380 0.780322
0.296263 0.781149
0.300146 0.780016
0.304029 0.776819
0.307911 0.771558
0.311794 0.764332
0.315677 0.755319
0.319560 0.744764
0.323443 0.732959
0.327325 0.720231
0.331208 0.706920
0.335091 0.693365
0.338974 0.679884
0.342857 0.666761
0.346739 0.654231
0.350622 0.642465
0.354505 0.631563
0.358388 0.621549
0.362271 0.612373
0.366154 0.603912
0.370036 0.595978
0.373919 0.588332
0.377802 0.580694
0.381685 0.572754
0.385568 0.564190
0.389450 0.554670
0.393333 0.543870
0.397216 0.531473
0.401099 0.517186
0.404981 0.500735
0.408864 0.481879
0.412747 0.460412
0.416630 0.436171
0.420513 0.409039
0.424396 0.378958
0.428278 0.345929
0.432161 0.310021
0.436044 0.271370
0.439927 0.230183
0.443810 0.186724
0.447692 0.141292
0.451575 0.094137
0.455458 0.044839
0.459341 -0.017480


0.000000 -0.003255
0.003363 0.095067
0.006725 0.190319
0.010088 0.285752
0.013450 0.381461
0.016813 0.477513
0.020176 0.573950
0.023538 0.670788
0.026901 0.768017
0.030263 0.865605
0.033626 0.963496
0.036989 1.061619
0.040351 1.159886
0.043714 1.258203
0.047077 1.356468
0.050439 1.454577
0.053802 1.552425
0.057164 1.649908
0.060527 1.746920
0.063890 1.843356
0.067252 1.939102
0.070615 2.034038
0.073977 2.128032
0.077340 2.220932
0.080703 2.312567
0.084065 2.402741
0.087428 2.491234
0.090790 2.577800
0.094153 2.662170
0.097516 2.744055
0.100878 2.823156
0.104241 2.899169
0.107604 2.971795
0.110966 3.040754
0.114329 3.105788
0.117691 3.166681
0.121054 3.223259
0.124416 3.275399
0.127779 3.323033
0.131142 3.366148
0.134504 3.404784
0.137867 3.439028
0.141230 3.469005
0.144592 3.494869
0.147955 3.516794
0.151317 3.534960
0.154680 3.549541
0.158043 3.560698
0.161405 3.568563
0.164768 3.573240
0.168130 3.574792

0.168130 3.574792
0.170072 3.577345
0.172013 3.584996
0.173955 3.597724
0.175896 3.615493
0.177837 3.638252
0.179779 3.665934
0.181720 3.698457
0.183662 3.735722
0.185603 3.777614
0.187544 3.823998
0.189486 3.874725
0.191427 3.929626
0.193369 3.988514
0.195310 4.051187
0.197251 4.117422
0.199193 4.186985
0.201134 4.259622
0.203076 4.335067
0.205017 4.413042
0.206958 4.493259
0.208900 4.575416
0.210841 4.659210
0.212783 4.744327
0.214724 4.830453
0.216666 4.917271
0.218607 5.004464
0.220548 5.091720
0.222490 5.178728
0.224431 5.265183
0.226373 5.350787
0.228314 5.435251
0.230255 5.518291
0.232197 5.599633
0.234138 5.679011
0.236079 5.756164
0.238021 5.830837
0.239962 5.902774
0.241904 5.971719
0.243845 6.037406
0.245786 6.099552
0.247728 6.157850
0.249669 6.211957
0.251611 6.261484
0.253552 6.305979
0.255493 6.344933
0.257435 6.377783
0.259376 6.403954
0.261318 6.422927
0.263259 6.434347
0.265201 6.438122

0.265201 6.438122
0.269083 6.423911
0.272966 6.384872
0.276849 6.326745
0.280732 6.254112
0.284615 6.169983
0.288497 6.076209
0.292380 5.973945
0.296263 5.863972
0.300146 5.746888
0.304029 5.623217
0.307911 5.493476
0.311794 5.358200
0.315677 5.217951
0.319560 5.073319
0.323443 4.924908
0.327325 4.773323
0.331208 4.619157
0.335091 4.462974
0.338974 4.305303
0.342857 4.146630
0.346739 3.987393
0.350622 3.827984
0.354505 3.668749
0.358388 3.509990
0.362271 3.351972
0.366154 3.194923
0.370036 3.039042
0.373919 2.884501
0.377802 2.731449
0.381685 2.580014
0.385568 2.430308
0.389450 2.282429
0.393333 2.136464
0.397216 1.992494
0.401099 1.850593
0.404981 1.710834
0.408864 1.573292
0.412747 1.438041
0.416630 1.305160
0.420513 1.174725
0.424396 1.046807
0.428278 0.921460
0.432161 0.798710
0.436044 0.678535
0.439927 0.560845
0.443810 0.445466
0.447692 0.332120
0.451575 0.220420
0.455458 0.109873
0.459341 -0.003255


0.000000 -0.003193
0.003363 0.222821
0.006725 0.445448
0.010088 0.667618
0.013450 0.889127
0.016813 1.109785
0.020176 1.329421
0.023538 1.547889
0.026901 1.765066
0.030263 1.980853
0.033626 2.195173
0.036989 2.407968
0.040351 2.619193
0.043714 2.828815
0.047077 3.036806
0.050439 3.243133
0.053802 3.447759
0.057164 3.650633
0.060527 3.851681
0.063890 4.050805
0.067252 4.247875
0.070615 4.442723
0.073977 4.635141
0.077340 4.824879
0.080703 5.011640
0.084065 5.195087
0.087428 5.374839
0.090790 5.550481
0.094153 5.721564
0.097516 5.887618
0.100878 6.048158
0.104241 6.202698
0.107604 6.350758
0.110966 6.491883
0.114329 6.625647
0.117691 6.751675
0.121054 6.869642
0.124416 6.979290
0.127779 7.080430
0.131142 7.172945
0.134504 7.256788
0.137867 7.331981
0.141230 7.398602
0.144592 7.456778
0.147955 7.506671
0.151317 7.548463
0.154680 7.582338
0.158043 7.608475
0.161405 7.627024
0.164768 7.638105
0.168130 7.641790

0.168130 7.641790
0.170072 7.641420
0.172013 7.640312
0.173955 7.638466
0.175896 7.635884
0.177837 7.632570
0.179779 7.628526
0.181720 7.623756
0.183662 7.618266
0.185603 7.612060
0.187544 7.605146
0.189486 7.597529
0.191427 7.589216
0.193369 7.580217
0.195310 7.570538
0.197251 7.560189
0.199193 7.549179
0.201134 7.537518
0.203076 7.525214
0.205017 7.512280
0.206958 7.498724
0.208900 7.484558
0.210841 7.469794
0.212783 7.454442
0.214724 7.438515
0.216666 7.422026
0.218607 7.404988
0.220548 7.387415
0.222490 7.369323
0.224431 7.350728
0.226373 7.331652
0.228314 7.312115
0.230255 7.292144
0.232197 7.271769
0.234138 7.251027
0.236079 7.229965
0.238021 7.208638
0.239962 7.187117
0.241904 7.165490
0.243845 7.143870
0.245786 7.122401
0.247728 7.101266
0.249669 7.080699
0.251611 7.060995
0.253552 7.042518
0.255493 7.025709
0.257435 7.011069
0.259376 6.999122
0.261318 6.990346
0.263259 6.985061
0.265201 6.983336

0.265201 6.983336
0.269083 6.989321
0.272966 7.003648
0.276849 7.020589
0.280732 7.035642
0.284615 7.045945
0.288497 7.049844
0.292380 7.046432
0.296263 7.035215
0.300146 7.015922
0.304029 6.988383
0.307911 6.952463
0.311794 6.908031
0.315677 6.854942
0.319560 6.793047
0.323443 6.722200
0.327325 6.642278
0.331208 6.553197
0.335091 6.454935
0.338974 6.347536
0.342857 6.231124
0.346739 6.105899
0.350622 5.972130
0.354505 5.830144
0.358388 5.680314
0.362271 5.523037
0.366154 5.358722
0.370036 5.187772
0.373919 5.010574
0.377802 4.827486
0.381685 4.638832
0.385568 4.444899
0.389450 4.245938
0.393333 4.042163
0.397216 3.833755
0.401099 3.620872
0.404981 3.403650
0.408864 3.182214
0.412747 2.956683
0.416630 2.727180
0.420513 2.493837
0.424396 2.256804
0.428278 2.016256
0.432161 1.772404
0.436044 1.525496
0.439927 1.275828
0.443810 1.023746
0.447692 0.769650
0.451575 0.513989
0.455458 0.257251
0.459341 -0.003193


0.000000 9.134799
0.003363 9.141627
0.006725 9.162041
0.010088 9.195827
0.013450 9.242634
0.016813 9.301984
0.020176 9.373284
0.023538 9.455837
0.026901 9.548859
0.030263 9.651497
0.033626 9.762840
0.036989 9.881938
0.040351 10.007816
0.043714 10.139481
0.047077 10.275935
0.050439 10.416168
0.053802 10.559159
0.057164 10.703838
0.060527 10.849014
0.063890 10.993178
0.067252 11.133933
0.070615 11.266019
0.073977 11.373670
0.077340 11.418096
0.080703 11.392590
0.084065 11.338417
0.087428 11.275559
0.090790 11.210068
0.094153 11.144139
0.097516 11.078771
0.100878 11.014512
0.104241 10.951708
0.107604 10.890608
0.110966 10.831410
0.114329 10.774286
0.117691 10.719397
0.121054 10.666900
0.124416 10.616954
0.127779 10.569721
0.131142 10.525369
0.134504 10.484070
0.137867 10.446001
0.141230 10.411339
0.144592 10.380257
0.147955 10.352924
0.151317 10.329496
0.154680 10.310115
0.158043 10.294906
0.161405 10.283967
0.164768 10.277374
0.168130 10.275171

0.168130 10.275171
0.170072 10.274981
0.172013 10.274414
0.173955 10.273470
0.175896 10.272154
0.177837 10.270469
0.179779 10.268421
0.181720 10.266018
0.183662 10.263267
0.185603 10.260178
0.187544 10.256763
0.189486 10.253035
0.191427 10.249007
0.193369 10.244695
0.195310 10.240117
0.197251 10.235290
0.199193 10.230235
0.201134 10.224973
0.203076 10.219528
0.205017 10.213922
0.206958 10.208182
0.208900 10.202333
0.210841 10.196403
0.212783 10.190418
0.214724 10.184408
0.216666 10.178400
0.218607 10.172421
0.220548 10.166500
0.222490 10.160662
0.224431 10.154932
0.226373 10.149334
0.228314 10.143890
0.230255 10.138619
0.232197 10.133539
0.234138 10.128664
0.236079 10.124006
0.238021 10.119576
0.239962 10.115382
0.241904 10.111430
0.243845 10.107724
0.245786 10.104271
0.247728 10.101074
0.249669 10.098140
0.251611 10.095478
0.253552 10.093097
0.255493 10.091014
0.257435 10.089245
0.259376 10.087816
0.261318 10.086752
0.263259 10.086087
0.265201 10.085857

0.265201 10.085857
0.269083 10.086862
0.272966 10.090116
0.276849 10.095980
0.280732 10.104803
0.284615 10.116895
0.288497 10.132506
0.292380 10.151823
0.296263 10.174960
0.300146 10.201963
0.304029 10.232819
0.307911 10.267463
0.311794 10.305790
0.315677 10.347661
0.319560 10.392921
0.323443 10.441401
0.327325 10.492928
0.331208 10.547327
0.335091 10.604423
0.338974 10.664035
0.342857 10.725961
0.346739 10.789960
0.350622 10.855695
0.354505 10.922644
0.358388 10.989871
0.362271 11.055492
0.366154 11.115172
0.370036 11.158270
0.373919 11.164770
0.377802 11.124811
0.381685 11.052754
0.385568 10.962519
0.389450 10.860723
0.393333 10.750572
0.397216 10.634020
0.401099 10.512571
0.404981 10.387590
0.408864 10.260430
0.412747 10.132495
0.416630 10.005267
0.420513 9.880314
0.424396 9.759291
0.428278 9.643930
0.432161 9.536022
0.436044 9.437391
0.439927 9.349858
0.443810 9.275192
0.447692 9.215050
0.451575 9.170893
0.455458 9.143889
0.459341 9.134799


0.000000 9.134799
0.003363 9.143007
0.006725 9.167546
0.010088 9.208157
0.013450 9.264418
0.016813 9.335756
0.020176 9.421462
0.023538 9.520712
0.026901 9.632584
0.030263 9.756081
0.033626 9.890153
0.036989 10.033712
0.040351 10.185655
0.043714 10.344876
0.047077 10.510279
0.050439 10.680794
0.053802 10.855382
0.057164 11.033042
0.060527 11.212818
0.063890 11.393804
0.067252 11.575143
0.070615 11.719879
0.073977 11.683486
0.077340 11.708854
0.080703 11.802409
0.084065 11.922629
0.087428 12.049295
0.090790 12.176144
0.094153 12.300790
0.097516 12.422070
0.100878 12.539295
0.104241 12.652008
0.107604 12.759872
0.110966 12.862631
0.114329 12.960083
0.117691 13.052068
0.121054 13.138456
0.124416 13.219142
0.127779 13.294043
0.131142 13.363093
0.134504 13.426242
0.137867 13.483448
0.141230 13.534682
0.144592 13.579921
0.147955 13.619148
0.151317 13.652354
0.154680 13.679529
0.158043 13.700669
0.161405 13.715771
0.164768 13.724832
0.168130 13.727853

0.168130 13.727853
0.170072 13.720701
0.172013 13.699775
0.173955 13.666482
0.175896 13.622706
0.177837 13.570406
0.179779 13.511359
0.181720 13.447064
0.183662 13.378735
0.185603 13.307341
0.187544 13.233654
0.189486 13.158297
0.191427 13.081777
0.193369 13.004515
0.195310 12.926870
0.197251 12.849147
0.199193 12.771618
0.201134 12.694523
0.203076 12.618077
0.205017 12.542480
0.206958 12.467912
0.208900 12.394544
0.210841 12.322533
0.212783 12.252027
0.214724 12.183165
0.216666 12.116076
0.218607 12.050885
0.220548 11.987708
0.222490 11.926653
0.224431 11.867824
0.226373 11.811316
0.228314 11.757221
0.230255 11.705623
0.232197 11.656599
0.234138 11.610222
0.236079 11.566556
0.238021 11.525662
0.239962 11.487589
0.241904 11.452381
0.243845 11.420074
0.245786 11.390694
0.247728 11.364257
0.249669 11.340768
0.251611 11.320221
0.253552 11.302596
0.255493 11.287863
0.257435 11.275975
0.259376 11.266873
0.261318 11.260485
0.263259 11.256726
0.265201 11.255496

0.265201 11.255496
0.269083 11.260178
0.272966 11.273533
0.276849 11.294438
0.280732 11.321687
0.284615 11.354032
0.288497 11.390216
0.292380 11.429002
0.296263 11.469189
0.300146 11.509632
0.304029 11.549245
0.307911 11.587014
0.311794 11.621996
0.315677 11.653325
0.319560 11.680211
0.323443 11.701945
0.327325 11.717896
0.331208 11.727516
0.335091 11.730342
0.338974 11.726001
0.342857 11.714226
0.346739 11.694871
0.350622 11.667964
0.354505 11.633792
0.358388 11.593119
0.362271 11.547719
0.366154 11.501864
0.370036 11.466175
0.373919 11.460677
0.377802 11.495236
0.381685 11.555436
0.385568 11.626979
0.389450 11.700991
0.393333 11.740078
0.397216 11.551191
0.401099 11.308154
0.404981 11.066327
0.408864 10.830676
0.412747 10.603634
0.416630 10.387205
0.420513 10.183243
0.424396 9.993500
0.428278 9.819612
0.432161 9.663069
0.436044 9.525182
0.439927 9.407051
0.443810 9.309537
0.447692 9.233258
0.451575 9.178597
0.455458 9.145752
0.459341 9.134799


0.000000 12.744161
0.003363 12.740982
0.006725 12.731471
0.010088 12.715707
0.013450 12.693823
0.016813 12.665999
0.020176 12.632463
0.023538 12.593489
0.026901 12.549390
0.030263 12.500515
0.033626 12.447246
0.036989 12.389994
0.040351 12.329192
0.043714 12.265297
0.047077 12.198787
0.050439 12.130166
0.053802 12.059976
0.057164 11.988829
0.060527 11.917486
0.063890 11.847052
0.067252 11.779548
0.070615 11.756032
0.073977 11.935718
0.077340 12.113503
0.080703 12.288740
0.084065 12.460832
0.087428 12.629231
0.090790 12.793436
0.094153 12.952991
0.097516 13.107482
0.100878 13.256537
0.104241 13.399820
0.107604 13.537032
0.110966 13.667907
0.114329 13.792208
0.117691 13.909731
0.121054 14.020292
0.124416 14.123737
0.127779 14.219929
0.131142 14.245312
0.134504 14.233532
0.137867 14.225472
0.141230 14.220539
0.144592 14.218108
0.147955 14.217555
0.151317 14.218275
0.154680 14.219711
0.158043 14.221373
0.161405 14.222861
0.164768 14.223876
0.168130 14.224235

0.168130 14.224235
0.170072 14.223927
0.172013 14.223012
0.173955 14.221514
0.175896 14.219476
0.177837 14.216954
0.179779 14.214021
0.181720 14.210760
0.183662 14.207269
0.185603 14.203655
0.187544 14.200031
0.189486 14.196520
0.191427 14.193245
0.193369 14.190335
0.195310 14.187915
0.197251 14.186111
0.199193 14.185042
0.201134 14.184821
0.203076 14.185554
0.205017 14.187334
0.206958 14.190244
0.208900 14.194352
0.210841 14.199710
0.212783 14.206354
0.214724 14.214303
0.216666 14.223554
0.218607 14.234086
0.220548 14.245860
0.222490 14.258812
0.224431 14.272862
0.226373 14.287909
0.228314 14.303831
0.230255 14.320492
0.232197 14.337736
0.234138 14.355395
0.236079 14.373288
0.238021 14.391225
0.239962 14.409010
0.241904 14.426442
0.243845 14.443321
0.245786 14.459450
0.247728 14.474639
0.249669 14.488709
0.251611 14.501496
0.253552 14.512850
0.255493 14.522643
0.257435 14.530770
0.259376 14.537150
0.261318 14.541726
0.263259 14.544470
0.265201 14.545381

0.265201 14.545381
0.269083 14.541828
0.272966 14.531578
0.276849 14.515508
0.280732 14.494797
0.284615 14.470850
0.288497 14.445203
0.292380 14.419453
0.296263 14.395174
0.300146 14.373856
0.304029 14.356848
0.307911 14.345319
0.311794 14.340220
0.315677 14.342265
0.319560 14.351922
0.323443 14.369412
0.327325 14.394719
0.331208 14.427611
0.335091 14.467667
0.338974 14.514307
0.342857 14.566830
0.346739 14.624445
0.350622 14.459248
0.354505 14.250280
0.358388 14.032666
0.362271 13.807031
0.366154 13.574104
0.370036 13.334732
0.373919 13.089886
0.377802 12.840687
0.381685 12.588471
0.385568 12.335041
0.389450 12.084229
0.393333 11.871946
0.397216 11.891158
0.401099 11.968552
0.404981 12.049564
0.408864 12.130165
0.412747 12.208937
0.416630 12.284921
0.420513 12.357297
0.424396 12.425318
0.428278 12.488281
0.432161 12.545533
0.436044 12.596469
0.439927 12.640548
0.443810 12.677293
0.447692 12.706302
0.451575 12.727256
0.455458 12.739923
0.459341 12.744161


0.000000 15.818501
0.003363 15.817743
0.006725 15.815432
0.010088 15.811466
0.013450 15.805676
0.016813 15.797838
0.020176 15.787681
0.023538 15.774901
0.026901 15.759174
0.030263 15.740171
0.033626 15.717574
0.036989 15.691093
0.040351 15.660478
0.043714 15.625534
0.047077 15.586135
0.050439 15.542232
0.053802 15.493866
0.057164 15.441164
0.060527 15.384355
0.063890 15.323759
0.067252 15.259793
0.070615 15.192959
0.073977 15.123843
0.077340 15.053097
0.080703 14.981434
0.084065 14.909603
0.087428 14.838380
0.090790 14.768545
0.094153 14.700863
0.097516 14.636062
0.100878 14.574814
0.104241 14.517715
0.107604 14.465267
0.110966 14.417861
0.114329 14.375769
0.117691 14.339131
0.121054 14.307952
0.124416 14.282109
0.127779 14.261350
0.131142 14.308752
0.134504 14.390109
0.137867 14.463917
0.141230 14.530107
0.144592 14.588621
0.147955 14.639414
0.151317 14.682448
0.154680 14.717694
0.158043 14.745130
0.161405 14.764738
0.164768 14.776507
0.168130 14.780431

0.168130 14.780431
0.170072 14.786821
0.172013 14.805469
0.173955 14.834977
0.175896 14.873481
0.177837 14.919048
0.179779 14.969935
0.181720 15.024684
0.183662 15.082130
0.185603 15.141356
0.187544 15.201651
0.189486 15.262460
0.191427 15.323345
0.193369 15.383963
0.195310 15.444038
0.197251 15.503346
0.199193 15.561707
0.201134 15.618972
0.203076 15.675018
0.205017 15.729744
0.206958 15.783065
0.208900 15.834909
0.210841 15.885218
0.212783 15.933942
0.214724 15.981040
0.216666 16.026477
0.218607 16.070226
0.220548 16.112263
0.222490 16.152570
0.224431 16.191132
0.226373 16.227937
0.228314 16.262977
0.230255 16.296245
0.232197 16.327736
0.234138 16.357447
0.236079 16.385375
0.238021 16.411519
0.239962 16.435879
0.241904 16.458454
0.243845 16.479243
0.245786 16.498245
0.247728 16.515461
0.249669 16.530886
0.251611 16.544521
0.253552 16.556360
0.255493 16.566399
0.257435 16.574632
0.259376 16.581053
0.261318 16.585653
0.263259 16.588421
0.265201 16.589347

0.265201 16.589347
0.269083 16.585616
0.272966 16.574333
0.276849 16.555348
0.280732 16.528484
0.284615 16.493542
0.288497 16.450302
0.292380 16.398528
0.296263 16.337972
0.300146 16.268382
0.304029 16.189505
0.307911 16.101095
0.311794 16.002922
0.315677 15.894777
0.319560 15.776481
0.323443 15.647893
0.327325 15.508918
0.331208 15.359514
0.335091 15.199701
0.338974 15.029564
0.342857 14.849267
0.346739 14.659052
0.350622 14.686304
0.354505 14.751532
0.358388 14.819247
0.362271 14.888582
0.366154 14.958699
0.370036 15.028805
0.373919 15.098159
0.377802 15.166080
0.381685 15.231956
0.385568 15.295248
0.389450 15.355496
0.393333 15.412321
0.397216 15.465426
0.401099 15.514595
0.404981 15.559694
0.408864 15.600663
0.412747 15.637515
0.416630 15.670324
0.420513 15.699221
0.424396 15.724379
0.428278 15.746005
0.432161 15.764328
0.436044 15.779588
0.439927 15.792019
0.443810 15.801845
0.447692 15.809263
0.451575 15.814438
0.455458 15.817491
