# distance  frequency (bands are separated by blank lines)
# End points of segments: 
#   0.00000000 0.17371690 0.27401240 0.47460330 
0.000000 -0.005776
0.003474 0.036541
0.006949 0.072325
0.010423 0.106930
0.013897 0.139984
0.017372 0.171395
0.020846 0.201374
0.024320 0.230445
0.027795 0.259401
0.031269 0.289234
0.034743 0.321033
0.038218 0.355862
0.041692 0.394657
0.045166 0.438146
0.048641 0.486824
0.052115 0.540951
0.055589 0.600594
0.059064 0.665668
0.062538 0.735976
0.066012 0.811255
0.069487 0.891194
0.072961 0.975458
0.076435 1.063700
0.079910 1.155566
0.083384 1.250699
0.086858 1.348741
0.090333 1.449330
0.093807 1.552101
0.097281 1.656679
0.100756 1.762679
0.104230 1.869700
0.107704 1.977324
0.111179 2.085108
0.114653 2.192585
0.118127 2.299254
0.121602 2.404584
0.125076 2.508005
0.128551 2.608910
0.132025 2.706654
0.135499 2.800554
0.138973 2.889893
0.142448 2.973928
0.145922 3.051895
0.149396 3.123026
0.152871 3.186563
0.156345 3.241779
0.159820 3.287999
0.163294 3.324626
0.166768 3.351165
0.170242 3.367243
0.173717 3.372628

0.173717 3.372628
0.175723 3.372401
0.177729 3.371720
0.179735 3.370585
0.181740 3.368997
0.183746 3.366954
0.185752 3.364457
0.187758 3.361508
0.189764 3.358108
0.191770 3.354258
0.193776 3.349963
0.195782 3.345225
0.197788 3.340053
0.199794 3.334453
0.201800 3.328435
0.203806 3.322013
0.205811 3.315201
0.207817 3.308019
0.209823 3.300488
0.211829 3.292633
0.213835 3.284484
0.215841 3.276074
0.217847 3.267440
0.219853 3.258624
0.221859 3.249670
0.223865 3.240629
0.225871 3.231551
0.227876 3.222493
0.229882 3.213514
0.231888 3.204673
0.233894 3.196032
0.235900 3.187651
0.237906 3.179593
0.239912 3.171914
0.241918 3.164671
0.243924 3.157913
0.245930 3.151686
0.247936 3.146027
0.249941 3.140964
0.251947 3.136515
0.253953 3.132689
0.255959 3.129482
0.257965 3.126876
0.259971 3.124841
0.261977 3.123334
0.263983 3.122298
0.265989 3.121663
0.267995 3.121347
0.270000 3.121256
0.272006 3.121285
0.274012 3.121321

0.274012 3.121321
0.278024 3.120925
0.282036 3.119042
0.286048 3.114611
0.290060 3.106593
0.294071 3.094030
0.298083 3.076081
0.302095 3.052064
0.306107 3.021470
0.310119 2.983971
0.314130 2.939415
0.318142 2.887814
0.322154 2.829322
0.326166 2.764210
0.330178 2.692847
0.334190 2.615673
0.338201 2.533177
0.342213 2.445884
0.346225 2.354340
0.350237 2.259098
0.354249 2.160716
0.358261 2.059748
0.362272 1.956744
0.366284 1.852249
0.370296 1.746805
0.374308 1.640949
0.378320 1.535222
0.382331 1.430165
0.386343 1.326328
0.390355 1.224266
0.394367 1.124548
0.398379 1.027754
0.402391 0.934475
0.406402 0.845307
0.410414 0.760844
0.414426 0.681660
0.418438 0.608278
0.422450 0.541123
0.426461 0.480462
0.430473 0.426314
0.434485 0.378363
0.438497 0.335898
0.442509 0.297800
0.446521 0.262634
0.450532 0.228827
0.454544 0.194900
0.458556 0.159687
0.462568 0.122496
0.466580 0.083183
0.470591 0.042131
0.474603 -0.005776


0.000000 -0.005595
0.003474 0.143025
0.006949 0.286443
0.010423 0.430264
0.013897 0.574710
0.017372 0.719947
0.020846 0.866098
0.024320 1.013245
0.027795 1.161423
0.031269 1.310627
0.034743 1.460809
0.038218 1.611889
0.041692 1.763754
0.045166 1.916272
0.048641 2.069289
0.052115 2.222642
0.055589 2.376157
0.059064 2.529650
0.062538 2.682934
0.066012 2.835808
0.069487 2.988062
0.072961 3.139469
0.076435 3.289779
0.079910 3.438719
0.083384 3.585982
0.086858 3.731232
0.090333 3.874093
0.093807 4.014157
0.097281 4.150984
0.100756 4.284108
0.104230 4.413046
0.107704 4.537308
0.111179 4.656409
0.114653 4.769887
0.118127 4.877313
0.121602 4.978308
0.125076 5.072555
0.128551 5.159810
0.132025 5.239906
0.135499 5.312761
0.138973 5.378370
0.142448 5.436806
0.145922 5.488204
0.149396 5.532755
0.152871 5.570680
0.156345 5.602224
0.159820 5.627628
0.163294 5.647119
0.166768 5.660891
0.170242 5.669092
0.173717 5.671815

0.173717 5.671815
0.175723 5.675959
0.177729 5.688375
0.179735 5.709018
0.181740 5.737817
0.183746 5.774668
0.185752 5.819444
0.187758 5.871988
0.189764 5.932118
0.191770 5.999629
0.193776 6.074292
0.195782 6.155857
0.197788 6.244053
0.199794 6.338591
0.201800 6.439163
0.203806 6.545447
0.205811 6.657102
0.207817 6.773777
0.209823 6.895105
0.211829 7.020709
0.213835 7.150199
0.215841 7.283178
0.217847 7.419237
0.219853 7.557959
0.221859 7.698919
0.223865 7.841688
0.225871 7.985826
0.227876 8.130892
0.229882 8.276436
0.231888 8.422006
0.233894 8.567144
0.235900 8.711390
0.237906 8.854277
0.239912 8.995335
0.241918 9.134090
0.243924 9.108713
0.245930 9.064779
0.247936 9.023853
0.249941 8.986051
0.251947 8.951452
0.253953 8.920106
0.255959 8.892032
0.257965 8.867226
0.259971 8.845660
0.261977 8.827286
0.263983 8.812036
0.265989 8.799824
0.267995 8.790548
0.270000 8.784089
0.272006 8.780319
0.274012 8.779095

0.274012 8.779095
0.278024 8.783680
0.282036 8.796579
0.286048 8.816514
0.290060 8.842270
0.294071 8.872758
0.298083 8.907034
0.302095 8.944271
0.306107 8.983706
0.310119 9.024573
0.314130 9.066051
0.318142 8.896809
0.322154 8.668735
0.326166 8.433272
0.330178 8.191407
0.334190 7.944100
0.338201 7.692268
0.342213 7.436771
0.346225 7.178406
0.350237 6.917900
0.354249 6.655914
0.358261 6.393047
0.362272 6.129843
0.366284 5.866799
0.370296 5.604374
0.374308 5.342995
0.378320 5.083067
0.382331 4.824978
0.386343 4.569102
0.390355 4.315801
0.394367 4.065429
0.398379 3.818330
0.402391 3.574837
0.406402 3.335271
0.410414 3.099936
0.414426 2.869118
0.418438 2.643079
0.422450 2.422052
0.426461 2.206235
0.430473 1.995782
0.434485 1.790794
0.438497 1.591306
0.442509 1.397274
0.446521 1.208562
0.450532 1.024923
0.454544 0.845989
0.458556 0.671261
0.462568 0.500102
0.466580 0.331747
0.470591 0.165303
0.474603 -0.005595


0.000000 0.002267
0.003474 0.322262
0.006949 0.644335
0.010423 0.965867
0.013897 1.286628
0.017372 1.606402
0.020846 1.924996
0.024320 2.242255
0.027795 2.558055
0.031269 2.872315
0.034743 3.184988
0.038218 3.496067
0.041692 3.805574
0.045166 4.113562
0.048641 4.420102
0.052115 4.725276
0.055589 5.029171
0.059064 5.331865
0.062538 5.633416
0.066012 5.933856
0.069487 6.233174
0.072961 6.531313
0.076435 6.828156
0.079910 7.123524
0.083384 7.417165
0.086858 7.708755
0.090333 7.997896
0.093807 8.284114
0.097281 8.566862
0.100756 8.845526
0.104230 9.119429
0.107704 9.387838
0.111179 9.649971
0.114653 9.905010
0.118127 10.152104
0.121602 10.390383
0.125076 10.618962
0.128551 10.716636
0.132025 10.669721
0.135499 10.607929
0.138973 10.538686
0.142448 10.467233
0.145922 10.397135
0.149396 10.330890
0.152871 10.270338
0.156345 10.216895
0.159820 10.171685
0.163294 10.135602
0.166768 10.109334
0.170242 10.093374
0.173717 10.088021

0.173717 10.088021
0.175723 10.087435
0.177729 10.085676
0.179735 10.082744
0.181740 10.078636
0.183746 10.073352
0.185752 10.066886
0.187758 10.059234
0.189764 10.050386
0.191770 10.040332
0.193776 10.029055
0.195782 10.016530
0.197788 10.002724
0.199794 9.987592
0.201800 9.971070
0.203806 9.953070
0.205811 9.933474
0.207817 9.912118
0.209823 9.888786
0.211829 9.863186
0.213835 9.834950
0.215841 9.803626
0.217847 9.768720
0.219853 9.729782
0.221859 9.686554
0.223865 9.639127
0.225871 9.588020
0.227876 9.534104
0.229882 9.478421
0.231888 9.422005
0.233894 9.365768
0.235900 9.310464
0.237906 9.256690
0.239912 9.204914
0.241918 9.155496
0.243924 9.270059
0.245930 9.402752
0.247936 9.531665
0.249941 9.608324
0.251947 9.588296
0.253953 9.569471
0.255959 9.551923
0.257965 9.535742
0.259971 9.521025
0.261977 9.507879
0.263983 9.496418
0.265989 9.486763
0.267995 9.479036
0.270000 9.473363
0.272006 9.469868
0.274012 9.468676

0.274012 9.468676
0.278024 9.473673
0.282036 9.489212
0.286048 9.515961
0.290060 9.554311
0.294071 9.604326
0.298083 9.665729
0.302095 9.715591
0.306107 9.526853
0.310119 9.326839
0.314130 9.116504
0.318142 9.107232
0.322154 9.147119
0.326166 9.184637
0.330178 9.218663
0.334190 9.248058
0.338201 9.271696
0.342213 9.288496
0.346225 9.297445
0.350237 9.297618
0.354249 9.288188
0.358261 9.135279
0.362272 8.898678
0.366284 8.654342
0.370296 8.402877
0.374308 8.144815
0.378320 7.880600
0.382331 7.610589
0.386343 7.335053
0.390355 7.054176
0.394367 6.768068
0.398379 6.476775
0.402391 6.180290
0.406402 5.878570
0.410414 5.571548
0.414426 5.259155
0.418438 4.941330
0.422450 4.618034
0.426461 4.289270
0.430473 3.955086
0.434485 3.615588
0.438497 3.270948
0.442509 2.921407
0.446521 2.567277
0.450532 2.208941
0.454544 1.846853
0.458556 1.481527
0.462568 1.113537
0.466580 0.743501
0.470591 0.372067
0.474603 0.002267


0.000000 5.631683
0.003474 5.643389
0.006949 5.678296
0.010423 5.735795
0.013897 5.814904
0.017372 5.914316
0.020846 6.032466
0.024320 6.167596
0.027795 6.317825
0.031269 6.481212
0.034743 6.655812
0.038218 6.839724
0.041692 7.031120
0.045166 7.228272
0.048641 7.429565
0.052115 7.633507
0.055589 7.838726
0.059064 8.043974
0.062538 8.248118
0.066012 8.450133
0.069487 8.649096
0.072961 8.844172
0.076435 9.034611
0.079910 9.219727
0.083384 9.398892
0.086858 9.571515
0.090333 9.737020
0.093807 9.894820
0.097281 10.044268
0.100756 10.184592
0.104230 10.314787
0.107704 10.433436
0.111179 10.538424
0.114653 10.626536
0.118127 10.693078
0.121602 10.732278
0.125076 10.739795
0.128551 10.836953
0.132025 11.043472
0.135499 11.237642
0.138973 11.418603
0.142448 11.585512
0.145922 11.680110
0.149396 11.718340
0.152871 11.752581
0.156345 11.782197
0.159820 11.806790
0.163294 11.826110
0.166768 11.840001
0.170242 11.848368
0.173717 11.851162

0.173717 11.851162
0.175723 11.840282
0.177729 11.809092
0.179735 11.761105
0.181740 11.700319
0.183746 11.630180
0.185752 11.553303
0.187758 11.471584
0.189764 11.386388
0.191770 11.298723
0.193776 11.209358
0.195782 11.118907
0.197788 11.027885
0.199794 10.936749
0.201800 10.845920
0.203806 10.755810
0.205811 10.666839
0.207817 10.579450
0.209823 10.494135
0.211829 10.411442
0.213835 10.331999
0.215841 10.256504
0.217847 10.185698
0.219853 10.120271
0.221859 10.060718
0.223865 10.007180
0.225871 9.959366
0.227876 9.916630
0.229882 9.878146
0.231888 9.843093
0.233894 9.810762
0.235900 9.780599
0.237906 9.752195
0.239912 9.725264
0.241918 9.699618
0.243924 9.675141
0.245930 9.651774
0.247936 9.629496
0.249941 9.656278
0.251947 9.776045
0.253953 9.890383
0.255959 9.998659
0.257965 10.100161
0.259971 10.194077
0.261977 10.279451
0.263983 10.355149
0.265989 10.419841
0.267995 10.472043
0.270000 10.510280
0.272006 10.533413
0.274012 10.541047

0.274012 10.541047
0.278024 10.513062
0.282036 10.438907
0.286048 10.332402
0.290060 10.202723
0.294071 10.054990
0.298083 9.892041
0.302095 9.737946
0.306107 9.820185
0.310119 9.911524
0.314130 10.011004
0.318142 10.117685
0.322154 10.230690
0.326166 10.349225
0.330178 10.472576
0.334190 10.352711
0.338201 10.177554
0.342213 9.990332
0.346225 9.791750
0.350237 9.582547
0.354249 9.363475
0.358261 9.268433
0.362272 9.237745
0.366284 9.195628
0.370296 9.141702
0.374308 9.075697
0.378320 8.997461
0.382331 8.906956
0.386343 8.804260
0.390355 8.689572
0.394367 8.563216
0.398379 8.425649
0.402391 8.277465
0.406402 8.119411
0.410414 7.952394
0.414426 7.777499
0.418438 7.596003
0.422450 7.409392
0.426461 7.219386
0.430473 7.027947
0.434485 6.837309
0.438497 6.649982
0.442509 6.468757
0.446521 6.296700
0.450532 6.137119
0.454544 5.993497
0.458556 5.869396
0.462568 5.768296
0.466580 5.693380
0.470591 5.647262
0.474603 5.631683


0.000000 5.631685
0.003474 5.645364
0.006949 5.686129
0.010423 5.753176
0.013897 5.845232
0.017372 5.960635
0.020846 6.097430
0.024320 6.253475
0.027795 6.426528
0.031269 6.614332
0.034743 6.814667
0.038218 7.025405
0.041692 7.244530
0.045166 7.470163
0.048641 7.700563
0.052115 7.934133
0.055589 8.169412
0.059064 8.405073
0.062538 8.639915
0.066012 8.872852
0.069487 9.102908
0.072961 9.329206
0.076435 9.550967
0.079910 9.767495
0.083384 9.978178
0.086858 10.182478
0.090333 10.379930
0.093807 10.570132
0.097281 10.752745
0.100756 10.927488
0.104230 11.094133
0.107704 11.252500
0.111179 11.402457
0.114653 11.543912
0.118127 11.574095
0.121602 11.521356
0.125076 11.496064
0.128551 11.497807
0.132025 11.520316
0.135499 11.555417
0.138973 11.596435
0.142448 11.638917
0.145922 11.737554
0.149396 11.873943
0.152871 11.993934
0.156345 12.096827
0.159820 12.181986
0.163294 12.248854
0.166768 12.296967
0.170242 12.325980
0.173717 12.335675

0.173717 12.335675
0.175723 12.335133
0.177729 12.333509
0.179735 12.330801
0.181740 12.327011
0.183746 12.322140
0.185752 12.316188
0.187758 12.309157
0.189764 12.301048
0.191770 12.291864
0.193776 12.281607
0.195782 12.270278
0.197788 12.257881
0.199794 12.244420
0.201800 12.229898
0.203806 12.214318
0.205811 12.197686
0.207817 12.180007
0.209823 12.161286
0.211829 12.141529
0.213835 12.120744
0.215841 12.098937
0.217847 12.076117
0.219853 12.052293
0.221859 12.027474
0.223865 12.001671
0.225871 11.974897
0.227876 11.947164
0.229882 11.918487
0.231888 11.888883
0.233894 11.858372
0.235900 11.826976
0.237906 11.794723
0.239912 11.761646
0.241918 11.727784
0.243924 11.693188
0.245930 11.657922
0.247936 11.622069
0.249941 11.585736
0.251947 11.549066
0.253953 11.512248
0.255959 11.475540
0.257965 11.439286
0.259971 11.403956
0.261977 11.370178
0.263983 11.338783
0.265989 11.310823
0.267995 11.287531
0.270000 11.270160
0.272006 11.259658
0.274012 11.256264

0.274012 11.256264
0.278024 11.267094
0.282036 11.289491
0.286048 11.309591
0.290060 11.318660
0.294071 11.312419
0.298083 11.289176
0.302095 11.248563
0.306107 11.190832
0.310119 11.116490
0.314130 11.026110
0.318142 10.920256
0.322154 10.799462
0.326166 10.664249
0.330178 10.515145
0.334190 10.600103
0.338201 10.731221
0.342213 10.865376
0.346225 11.002010
0.350237 11.140498
0.354249 11.280031
0.358261 11.419308
0.362272 11.555583
0.366284 11.680622
0.370296 11.757654
0.374308 11.675775
0.378320 11.461577
0.382331 11.205649
0.386343 10.930943
0.390355 10.643660
0.394367 10.346598
0.398379 10.041664
0.402391 9.730534
0.406402 9.414872
0.410414 9.096429
0.414426 8.777086
0.418438 8.458885
0.422450 8.144052
0.426461 7.835007
0.430473 7.534369
0.434485 7.244960
0.438497 6.969783
0.442509 6.711989
0.446521 6.474819
0.450532 6.261511
0.454544 6.075183
0.458556 5.918689
0.462568 5.794473
0.466580 5.704447
0.470591 5.649934
0.474603 5.631685


0.000000 14.575293
0.003474 14.571141
0.006949 14.558710
0.010423 14.538067
0.013897 14.509321
0.017372 14.472626
0.020846 14.428176
0.024320 14.376201
0.027795 14.316970
0.031269 14.250779
0.034743 14.177956
0.038218 14.098853
0.041692 14.013840
0.045166 13.923308
0.048641 13.827658
0.052115 13.727302
0.055589 13.622658
0.059064 13.514147
0.062538 13.402193
0.066012 13.287218
0.069487 13.169645
0.072961 13.049901
0.076435 12.928411
0.079910 12.805613
0.083384 12.681961
0.086858 12.557936
0.090333 12.434067
0.093807 12.310954
0.097281 12.189315
0.100756 12.070050
0.104230 11.954350
0.107704 11.843874
0.111179 11.741033
0.114653 11.649404
0.118127 11.676810
0.121602 11.801132
0.125076 11.916887
0.128551 12.024109
0.132025 12.122854
0.135499 12.213197
0.138973 12.295222
0.142448 12.369025
0.145922 12.434707
0.149396 12.492368
0.152871 12.542107
0.156345 12.584017
0.159820 12.618182
0.163294 12.644676
0.166768 12.663556
0.170242 12.674866
0.173717 12.678633

0.173717 12.678633
0.175723 12.688359
0.177729 12.716092
0.179735 12.758341
0.181740 12.811143
0.183746 12.871103
0.185752 12.935669
0.187758 13.003025
0.189764 13.071901
0.191770 13.141400
0.193776 13.210882
0.195782 13.279880
0.197788 13.348047
0.199794 13.415120
0.201800 13.480899
0.203806 13.545225
0.205811 13.607977
0.207817 13.669057
0.209823 13.728389
0.211829 13.785911
0.213835 13.841578
0.215841 13.895352
0.217847 13.947207
0.219853 13.997124
0.221859 14.045090
0.223865 14.091099
0.225871 14.135148
0.227876 14.177239
0.229882 14.217379
0.231888 14.255577
0.233894 14.291844
0.235900 14.326194
0.237906 14.358641
0.239912 14.389204
0.241918 14.417899
0.243924 14.444746
0.245930 14.469762
0.247936 14.492967
0.249941 14.514378
0.251947 14.534013
0.253953 14.551890
0.255959 14.568024
0.257965 14.582429
0.259971 14.595118
0.261977 14.606101
0.263983 14.615387
0.265989 14.622983
0.267995 14.628893
0.270000 14.633118
0.272006 14.635656
0.274012 14.636503

0.274012 14.636503
0.278024 14.633094
0.282036 14.622797
0.286048 14.605467
0.290060 14.580911
0.294071 14.548886
0.298083 14.509103
0.302095 14.461233
0.306107 14.404909
0.310119 14.339738
0.314130 14.265303
0.318142 14.181177
0.322154 14.086931
0.326166 13.982147
0.330178 13.866432
0.334190 13.739426
0.338201 13.600829
0.342213 13.450416
0.346225 13.288072
0.350237 13.113851
0.354249 12.928096
0.358261 12.731740
0.362272 12.527266
0.366284 12.322748
0.370296 12.154901
0.374308 12.134676
0.378320 12.235632
0.382331 12.367439
0.386343 12.507507
0.390355 12.650104
0.394367 12.793014
0.398379 12.935022
0.402391 13.075268
0.406402 13.213029
0.410414 13.347639
0.414426 13.478450
0.418438 13.604818
0.422450 13.726101
0.426461 13.841657
0.430473 13.950848
0.434485 14.053048
0.438497 14.147647
0.442509 14.234062
0.446521 14.311742
0.450532 14.380178
0.454544 14.438911
0.458556 14.487540
0.462568 14.525725
0.466580 14.553196
0.470591 14.569759
0.474603 14.575293


0.000000 18.375040
0.003474 18.373955
0.006949 18.370669
0.010423 18.365094
0.013897 18.357086
0.017372 18.346451
0.020846 18.332959
0.024320 18.316347
0.027795 18.296338
0.031269 18.272650
0.034743 18.245008
0.038218 18.213160
0.041692 18.176889
0.045166 18.136022
0.048641 18.090441
0.052115 18.040095
0.055589 17.985000
0.059064 17.925253
0.062538 17.861027
0.066012 17.792576
0.069487 17.720235
0.072961 17.644414
0.076435 17.565600
0.079910 17.484340
0.083384 17.401243
0.086858 17.316966
0.090333 17.232202
0.093807 17.147665
0.097281 17.064082
0.100756 16.982173
0.104230 16.902634
0.107704 16.826123
0.111179 16.753246
0.114653 16.684534
0.118127 16.620435
0.121602 16.561303
0.125076 16.507382
0.128551 16.458811
0.132025 16.415613
0.135499 16.377705
0.138973 16.344907
0.142448 16.316949
0.145922 16.293494
0.149396 16.274156
0.152871 16.258518
0.156345 16.246163
0.159820 16.236689
0.163294 16.229734
0.166768 16.224997
0.170242 16.222249
0.173717 16.221349

0.173717 16.221349
0.175723 16.220449
0.177729 16.217759
0.179735 16.213308
0.181740 16.207143
0.183746 16.199330
0.185752 16.189947
0.187758 16.179088
0.189764 16.166859
0.191770 16.153371
0.193776 16.138748
0.195782 16.123113
0.197788 16.106595
0.199794 16.089325
0.201800 16.071433
0.203806 16.053047
0.205811 16.034293
0.207817 16.015295
0.209823 15.996170
0.211829 15.977032
0.213835 15.957989
0.215841 15.939143
0.217847 15.920591
0.219853 15.902420
0.221859 15.884712
0.223865 15.867543
0.225871 15.850978
0.227876 15.835078
0.229882 15.819892
0.231888 15.805465
0.233894 15.791832
0.235900 15.779020
0.237906 15.767048
0.239912 15.755927
0.241918 15.745661
0.243924 15.736246
0.245930 15.727670
0.247936 15.719914
0.249941 15.712953
0.251947 15.706757
0.253953 15.701290
0.255959 15.696511
0.257965 15.692379
0.259971 15.688850
0.261977 15.685881
0.263983 15.683432
0.265989 15.681468
0.267995 15.679959
0.270000 15.678887
0.272006 15.678240
0.274012 15.678023

0.274012 15.678023
0.278024 15.678941
0.282036 15.681896
0.286048 15.687308
0.290060 15.695706
0.294071 15.707683
0.298083 15.723847
0.302095 15.744798
0.306107 15.771108
0.310119 15.803310
0.314130 15.841876
0.318142 15.887195
0.322154 15.939541
0.326166 15.999050
0.330178 16.065696
0.334190 16.139277
0.338201 16.219421
0.342213 16.305591
0.346225 16.397110
0.350237 16.493190
0.354249 16.592960
0.358261 16.695499
0.362272 16.799868
0.366284 16.905130
0.370296 17.010380
0.374308 17.114752
0.378320 17.217444
0.382331 17.317717
0.386343 17.414911
0.390355 17.508448
0.394367 17.597831
0.398379 17.682650
0.402391 17.762579
0.406402 17.837375
0.410414 17.906876
0.414426 17.970995
0.418438 18.029715
0.422450 18.083083
0.426461 18.131204
0.430473 18.174229
0.434485 18.212352
0.438497 18.245793
0.442509 18.274796
0.446521 18.299614
0.450532 18.320499
0.454544 18.337694
0.458556 18.351423
0.462568 18.361882
0.466580 18.369233
0.470591 18.373594
0.474603 18.375040


0.000000 18.375040
0.003474 18.383958
