# distance  frequency (bands are separated by blank lines)
# End points of segments:
#   0.00000000 0.18298770 0.28863580 0.49993180 
0.000000 -0.319730
0.003660 -0.256274
0.007319 0.190121
0.010979 0.287615
0.014639 0.385398
0.018299 0.483792
0.021958 0.582877
0.025618 0.682602
0.029278 0.782808
0.032938 0.883248
0.036597 0.983607
0.040257 1.083521
0.043917 1.182601
0.047577 1.280455
0.051237 1.376709
0.054896 1.471027
0.058556 1.563128
0.062216 1.652797
0.065876 1.739898
0.069535 1.824374
0.073195 1.906250
0.076855 1.985627
0.080515 2.062673
0.084174 2.137607
0.087834 2.210683
0.091494 2.282175
0.095154 2.352347
0.098813 2.421440
0.102473 2.489648
0.106133 2.557101
0.109793 2.623857
0.113452 2.689889
0.117112 2.755086
0.120772 2.819252
0.124432 2.882123
0.128091 2.943370
0.131751 3.002623
0.135411 3.059487
0.139071 3.113560
0.142730 3.164452
0.146390 3.211804
0.150050 3.255296
0.153710 3.294659
0.157369 3.329680
0.161029 3.360199
0.164689 3.386109
0.168349 3.407341
0.172009 3.423863
0.175668 3.435663
0.179328 3.442740
0.182988 3.445098

0.182988 3.445098
0.185101 3.445851
0.187214 3.448114
0.189327 3.451894
0.191440 3.457203
0.193553 3.464059
0.195665 3.472482
0.197778 3.482492
0.199891 3.494114
0.202004 3.507368
0.204117 3.522274
0.206230 3.538848
0.208343 3.557099
0.210456 3.577029
0.212569 3.598632
0.214682 3.621890
0.216795 3.646775
0.218908 3.673245
0.221021 3.701245
0.223134 3.730705
0.225247 3.761541
0.227360 3.793655
0.229473 3.826935
0.231586 3.861255
0.233699 3.896476
0.235812 3.932448
0.237925 3.969010
0.240038 4.005992
0.242151 4.043217
0.244264 4.080501
0.246377 4.117658
0.248490 4.154497
0.250603 4.190827
0.252715 4.226458
0.254828 4.261203
0.256941 4.294877
0.259054 4.327301
0.261167 4.358305
0.263280 4.387723
0.265393 4.415399
0.267506 4.441188
0.269619 4.464953
0.271732 4.486571
0.273845 4.505927
0.275958 4.522921
0.278071 4.537462
0.280184 4.549474
0.282297 4.558892
0.284410 4.565663
0.286523 4.569745
0.288636 4.571111

0.288636 4.571111
0.292862 4.565630
0.297088 4.549209
0.301314 4.521998
0.305540 4.484298
0.309765 4.436542
0.313991 4.379284
0.318217 4.313183
0.322443 4.238992
0.326669 4.157547
0.330895 4.069753
0.335121 3.976573
0.339347 3.879013
0.343573 3.778099
0.347799 3.674861
0.352025 3.570304
0.356251 3.465381
0.360476 3.360963
0.364702 3.257811
0.368928 3.156545
0.373154 3.057624
0.377380 2.961324
0.381606 2.867728
0.385832 2.776730
0.390058 2.688040
0.394284 2.601208
0.398510 2.515651
0.402736 2.430695
0.406962 2.345613
0.411187 2.259673
0.415413 2.172179
0.419639 2.082509
0.423865 1.990153
0.428091 1.894731
0.432317 1.796016
0.436543 1.693937
0.440769 1.588582
0.444995 1.480184
0.449221 1.369109
0.453447 1.255825
0.457673 1.140876
0.461898 1.024843
0.466124 0.908302
0.470350 0.791789
0.474576 0.675750
0.478802 0.560514
0.483028 0.446252
0.487254 0.332945
0.491480 0.220295
0.495706 -0.231140
0.499932 -0.319730


0.000000 -0.319722
0.003660 0.091587
0.007319 0.209295
0.010979 0.475052
0.014639 0.692040
0.018299 0.895497
0.021958 1.091906
0.025618 1.283213
0.029278 1.469943
0.032938 1.652050
0.036597 1.829246
0.040257 2.001180
0.043917 2.167562
0.047577 2.328253
0.051237 2.483329
0.054896 2.633127
0.058556 2.778241
0.062216 2.919497
0.065876 3.057884
0.069535 3.194465
0.073195 3.330285
0.076855 3.466287
0.080515 3.603253
0.084174 3.741776
0.087834 3.882251
0.091494 4.024878
0.095154 4.169678
0.098813 4.316488
0.102473 4.464963
0.106133 4.614563
0.109793 4.764552
0.113452 4.913990
0.117112 5.061757
0.120772 5.206578
0.124432 5.347077
0.128091 5.481840
0.131751 5.609493
0.135411 5.728785
0.139071 5.838659
0.142730 5.938320
0.146390 6.027274
0.150050 6.105346
0.153710 6.172664
0.157369 6.229622
0.161029 6.276818
0.164689 6.314974
0.168349 6.344859
0.172009 6.367213
0.175668 6.382678
0.179328 6.391749
0.182988 6.394737

0.182988 6.394737
0.185101 6.395173
0.187214 6.396517
0.189327 6.398873
0.191440 6.402412
0.193553 6.407367
0.195665 6.414023
0.197778 6.422708
0.199891 6.433786
0.202004 6.447640
0.204117 6.464662
0.206230 6.485240
0.208343 6.509742
0.210456 6.538504
0.212569 6.571822
0.214682 6.609933
0.216795 6.653013
0.218908 6.701165
0.221021 6.754418
0.223134 6.812721
0.225247 6.875944
0.227360 6.943878
0.229473 7.016244
0.231586 7.092693
0.233699 7.172816
0.235812 7.256154
0.237925 7.342201
0.240038 7.430420
0.242151 7.520247
0.244264 7.611104
0.246377 7.702403
0.248490 7.793554
0.250603 7.883974
0.252715 7.973089
0.254828 8.060342
0.256941 8.145191
0.259054 8.227116
0.261167 8.305622
0.263280 8.380235
0.265393 8.450511
0.267506 8.516031
0.269619 8.576408
0.271732 8.631287
0.273845 8.680348
0.275958 8.723313
0.278071 8.759948
0.280184 8.790065
0.282297 8.813535
0.284410 8.830281
0.286523 8.840289
0.288636 8.843604

0.288636 8.843604
0.292862 8.830640
0.297088 8.792886
0.301314 8.732558
0.305540 8.652336
0.309765 8.555096
0.313991 8.443675
0.318217 8.320683
0.322443 8.188391
0.326669 8.048670
0.330895 7.903006
0.335121 7.752542
0.339347 7.598166
0.343573 7.440588
0.347799 7.280417
0.352025 7.118202
0.356251 6.954444
0.360476 6.789586
0.364702 6.623979
0.368928 6.457850
0.373154 6.291264
0.377380 6.124106
0.381606 5.956075
0.385832 5.786692
0.390058 5.615333
0.394284 5.441261
0.398510 5.263689
0.402736 5.081837
0.406962 4.894999
0.411187 4.702601
0.415413 4.504261
0.419639 4.299817
0.423865 4.089343
0.428091 3.873141
0.432317 3.651703
0.436543 3.425672
0.440769 3.195787
0.444995 2.962841
0.449221 2.727637
0.453447 2.490953
0.457673 2.253508
0.461898 2.015919
0.466124 1.778648
0.470350 1.541922
0.474576 1.305609
0.478802 1.068966
0.483028 0.830000
0.487254 0.583226
0.491480 0.305795
0.495706 0.107076
0.499932 -0.319722


0.000000 -0.028835
0.003660 0.165453
0.007319 0.644607
0.010979 1.029672
0.014639 1.399314
0.018299 1.761844
0.021958 2.119324
0.025618 2.472192
0.029278 2.820279
0.032938 3.163125
0.036597 3.500122
0.040257 3.830582
0.043917 4.153790
0.047577 4.469043
0.051237 4.775693
0.054896 5.073181
0.058556 5.361073
0.062216 5.639100
0.065876 5.907181
0.069535 6.165451
0.073195 6.414269
0.076855 6.654217
0.080515 6.886084
0.084174 7.110826
0.087834 7.329515
0.091494 7.543270
0.095154 7.753173
0.098813 7.960188
0.102473 8.165077
0.106133 8.368329
0.109793 8.570107
0.113452 8.770216
0.117112 8.968109
0.120772 9.162912
0.124432 9.353481
0.128091 9.538486
0.131751 9.716506
0.135411 9.886124
0.139071 10.046020
0.142730 10.195046
0.146390 10.332272
0.150050 10.457005
0.153710 10.568779
0.157369 10.667326
0.161029 10.628129
0.164689 10.584417
0.168349 10.548455
0.172009 10.520370
0.175668 10.500253
0.179328 10.488161
0.182988 10.484127

0.182988 10.484127
0.185101 10.483922
0.187214 10.483310
0.189327 10.482292
0.191440 10.480876
0.193553 10.479068
0.195665 10.476878
0.197778 10.474318
0.199891 10.471400
0.202004 10.468140
0.204117 10.464553
0.206230 10.460656
0.208343 10.456468
0.210456 10.452007
0.212569 10.447293
0.214682 10.442345
0.216795 10.437183
0.218908 10.431827
0.221021 10.426296
0.223134 10.420609
0.225247 10.414785
0.227360 10.408841
0.229473 10.402794
0.231586 10.396660
0.233699 10.390456
0.235812 10.384196
0.237925 10.377894
0.240038 10.371565
0.242151 10.365221
0.244264 10.358876
0.246377 10.352543
0.248490 10.346236
0.250603 10.339968
0.252715 10.333755
0.254828 10.327613
0.256941 10.321559
0.259054 10.315614
0.261167 10.309799
0.263280 10.304140
0.265393 10.298665
0.267506 10.293404
0.269619 10.288393
0.271732 10.283673
0.273845 10.279286
0.275958 10.275281
0.278071 10.271713
0.280184 10.268638
0.282297 10.266121
0.284410 10.264230
0.286523 10.263039
0.288636 10.262623

0.288636 10.262623
0.292862 10.264453
0.297088 10.270414
0.301314 10.281235
0.305540 10.297655
0.309765 10.320388
0.313991 10.350087
0.318217 10.387301
0.322443 10.432447
0.326669 10.485776
0.330895 10.547350
0.335121 10.617044
0.339347 10.517876
0.343573 10.387338
0.347799 10.242183
0.352025 10.083671
0.356251 9.913347
0.360476 9.732935
0.364702 9.544207
0.368928 9.348864
0.373154 9.148411
0.377380 8.944061
0.381606 8.736661
0.385832 8.526656
0.390058 8.314090
0.394284 8.098642
0.398510 7.879690
0.402736 7.656395
0.406962 7.427785
0.411187 7.192833
0.415413 6.950513
0.419639 6.699833
0.423865 6.439857
0.428091 6.169714
0.432317 5.888625
0.436543 5.595931
0.440769 5.291144
0.444995 4.973987
0.449221 4.644423
0.453447 4.302659
0.457673 3.949123
0.461898 3.584421
0.466124 3.209284
0.470350 2.824508
0.474576 2.430869
0.478802 2.028999
0.483028 1.619098
0.487254 1.200086
0.491480 0.765898
0.495706 0.265475
0.499932 -0.028835


0.000000 14.267809
0.003660 14.267254
0.007319 14.265519
0.010979 14.262383
0.014639 14.257476
0.018299 14.250246
0.021958 14.239928
0.025618 14.225462
0.029278 14.205369
0.032938 14.177587
0.036597 14.139390
0.040257 14.087697
0.043917 14.020150
0.047577 13.936503
0.051237 13.838867
0.054896 13.730513
0.058556 13.614600
0.062216 13.493638
0.065876 13.369461
0.069535 13.243375
0.073195 13.116303
0.076855 12.988893
0.080515 12.861610
0.084174 12.734786
0.087834 12.608670
0.091494 12.483458
0.095154 12.359321
0.098813 12.236425
0.102473 12.114944
0.106133 11.995076
0.109793 11.877050
0.113452 11.761135
0.117112 11.647640
0.120772 11.536922
0.124432 11.429376
0.128091 11.325434
0.131751 11.225558
0.135411 11.130225
0.139071 11.039918
0.142730 10.955113
0.146390 10.876262
0.150050 10.803786
0.153710 10.738062
0.157369 10.679418
0.161029 10.752535
0.164689 10.824407
0.168349 10.883009
0.172009 10.928439
0.175668 10.960800
0.179328 10.980179
0.182988 10.986632

0.182988 10.986632
0.185101 10.986923
0.187214 10.987787
0.189327 10.989205
0.191440 10.991140
0.193553 10.993548
0.195665 10.996372
0.197778 10.999550
0.199891 11.003013
0.202004 11.006692
0.204117 11.010516
0.206230 11.014419
0.208343 11.018336
0.210456 11.022212
0.212569 11.025998
0.214682 11.029650
0.216795 11.033136
0.218908 11.036430
0.221021 11.039514
0.223134 11.042374
0.225247 11.045005
0.227360 11.047404
0.229473 11.049569
0.231586 11.051503
0.233699 11.053206
0.235812 11.054678
0.237925 11.055920
0.240038 11.056928
0.242151 11.057698
0.244264 11.058225
0.246377 11.058502
0.248490 11.058524
0.250603 11.058287
0.252715 11.057791
0.254828 11.057041
0.256941 11.056046
0.259054 11.054827
0.261167 11.053410
0.263280 11.051834
0.265393 11.050144
0.267506 11.048395
0.269619 11.046648
0.271732 11.044967
0.273845 11.043418
0.275958 11.042058
0.278071 11.040934
0.280184 11.040078
0.282297 11.039497
0.284410 11.039169
0.286523 11.039042
0.288636 11.039025

0.288636 11.039025
0.292862 11.038788
0.297088 11.037052
0.301314 11.031972
0.305540 11.021436
0.309765 11.003250
0.313991 10.975296
0.318217 10.935651
0.322443 10.882677
0.326669 10.815083
0.330895 10.731979
0.335121 10.632910
0.339347 10.694541
0.343573 10.779358
0.347799 10.870880
0.352025 10.968395
0.356251 11.071149
0.360476 11.178386
0.364702 11.289404
0.368928 11.403581
0.373154 11.520412
0.377380 11.639517
0.381606 11.760641
0.385832 11.883646
0.390058 12.008483
0.394284 12.135171
0.398510 12.263758
0.402736 12.394296
0.406962 12.526812
0.411187 12.661288
0.415413 12.797635
0.419639 12.935672
0.423865 13.075084
0.428091 13.215374
0.432317 13.355772
0.436543 13.495103
0.440769 13.631568
0.444995 13.762420
0.449221 13.883541
0.453447 13.989358
0.457673 14.074365
0.461898 14.136750
0.466124 14.179959
0.470350 14.209520
0.474576 14.229936
0.478802 14.244133
0.483028 14.253942
0.487254 14.260549
0.491480 14.264750
0.495706 14.267069
0.499932 14.267809


0.000000 14.267809
0.003660 14.268497
0.007319 14.270518
0.010979 14.273747
0.014639 14.277983
0.018299 14.282965
0.021958 14.288394
0.025618 14.293946
0.029278 14.299302
0.032938 14.304173
0.036597 14.308316
0.040257 14.311563
0.043917 14.313830
0.047577 14.315138
0.051237 14.315611
0.054896 14.315486
0.058556 14.315101
0.062216 14.307436
0.065876 14.289097
0.069535 14.275151
0.073195 14.265671
0.076855 14.260860
0.080515 14.260957
0.084174 14.266173
0.087834 14.276645
0.091494 14.292408
0.095154 14.313382
0.098813 14.339366
0.102473 14.370043
0.106133 14.404989
0.109793 14.443687
0.113452 14.485544
0.117112 14.529912
0.120772 14.576105
0.124432 14.623421
0.128091 14.671159
0.131751 14.718640
0.135411 14.765217
0.139071 14.810293
0.142730 14.853326
0.146390 14.893840
0.150050 14.931425
0.153710 14.965736
0.157369 14.996495
0.161029 15.023482
0.164689 15.046529
0.168349 15.065515
0.172009 15.080352
0.175668 15.090985
0.179328 15.097377
0.182988 15.099510

0.182988 15.099510
0.185101 15.099509
0.187214 15.099507
0.189327 15.099506
0.191440 15.099505
0.193553 15.099503
0.195665 15.099497
0.197778 15.099478
0.199891 15.099434
0.202004 15.099348
0.204117 15.099197
0.206230 15.098956
0.208343 15.098593
0.210456 15.098076
0.212569 15.097372
0.214682 15.096445
0.216795 15.095264
0.218908 15.093797
0.221021 15.092017
0.223134 15.089900
0.225247 15.087428
0.227360 15.084588
0.229473 15.081374
0.231586 15.077786
0.233699 15.073831
0.235812 15.069524
0.237925 15.064886
0.240038 15.059944
0.242151 15.054734
0.244264 15.049294
0.246377 15.043671
0.248490 15.037914
0.250603 15.032078
0.252715 15.026218
0.254828 15.020392
0.256941 15.014660
0.259054 15.009079
0.261167 15.003706
0.263280 14.998596
0.265393 14.993797
0.267506 14.989355
0.269619 14.985309
0.271732 14.981689
0.273845 14.978521
0.275958 14.975818
0.278071 14.973586
0.280184 14.971821
0.282297 14.970507
0.284410 14.969620
0.286523 14.969123
0.288636 14.968969

0.288636 14.968969
0.292862 14.969455
0.297088 14.970509
0.301314 14.971431
0.305540 14.971416
0.309765 14.969599
0.313991 14.965100
0.318217 14.957066
0.322443 14.944729
0.326669 14.927443
0.330895 14.904735
0.335121 14.876333
0.339347 14.842190
0.343573 14.802506
0.347799 14.757717
0.352025 14.708496
0.356251 14.655718
0.360476 14.600429
0.364702 14.543798
0.368928 14.487061
0.373154 14.431465
0.377380 14.378203
0.381606 14.328363
0.385832 14.282874
0.390058 14.242475
0.394284 14.207698
0.398510 14.178871
0.402736 14.156146
0.406962 14.139538
0.411187 14.128960
0.415413 14.124245
0.419639 14.125136
0.423865 14.131266
0.428091 14.142135
0.432317 14.157104
0.436543 14.175410
0.440769 14.196180
0.444995 14.218386
0.449221 14.240670
0.453447 14.261078
0.457673 14.277255
0.461898 14.287652
0.466124 14.292396
0.470350 14.292695
0.474576 14.289971
0.478802 14.285499
0.483028 14.280350
0.487254 14.275403
0.491480 14.271358
0.495706 14.268722
0.499932 14.267809


0.000000 15.155634
0.003660 15.149067
0.007319 15.129501
0.010979 15.097348
0.014639 15.053303
0.018299 14.998368
0.021958 14.933895
0.025618 14.861661
0.029278 14.783992
0.032938 14.703918
0.036597 14.625249
0.040257 14.552250
0.043917 14.488543
0.047577 14.435701
0.051237 14.392975
0.054896 14.358462
0.058556 14.330352
0.062216 14.314891
0.065876 14.315367
0.069535 14.317095
0.073195 14.320676
0.076855 14.326713
0.080515 14.335788
0.084174 14.348428
0.087834 14.365084
0.091494 14.386104
0.095154 14.411717
0.098813 14.442019
0.102473 14.476966
0.106133 14.516373
0.109793 14.559922
0.113452 14.607170
0.117112 14.657568
0.120772 14.710478
0.124432 14.765200
0.128091 14.820987
0.131751 14.877077
0.135411 14.932708
0.139071 14.987141
0.142730 15.039675
0.146390 15.089659
0.150050 15.136503
0.153710 15.179685
0.157369 15.218750
0.161029 15.253311
0.164689 15.283049
0.168349 15.307705
0.172009 15.327078
0.175668 15.341018
0.179328 15.349423
0.182988 15.352231

0.182988 15.352231
0.185101 15.353080
0.187214 15.355621
0.189327 15.359827
0.191440 15.365656
0.193553 15.373051
0.195665 15.381946
0.197778 15.392260
0.199891 15.403910
0.202004 15.416802
0.204117 15.430840
0.206230 15.445925
0.208343 15.461952
0.210456 15.478820
0.212569 15.496422
0.214682 15.514655
0.216795 15.533415
0.218908 15.552599
0.221021 15.572106
0.223134 15.591839
0.225247 15.611701
0.227360 15.631603
0.229473 15.651458
0.231586 15.671182
0.233699 15.690698
0.235812 15.709935
0.237925 15.728825
0.240038 15.747309
0.242151 15.765330
0.244264 15.782838
0.246377 15.799789
0.248490 15.816144
0.250603 15.831868
0.252715 15.846929
0.254828 15.861302
0.256941 15.874962
0.259054 15.887889
0.261167 15.900064
0.263280 15.911470
0.265393 15.922090
0.267506 15.931908
0.269619 15.940905
0.271732 15.949066
0.273845 15.956369
0.275958 15.962794
0.278071 15.968316
0.280184 15.972909
0.282297 15.976543
0.284410 15.979184
0.286523 15.980798
0.288636 15.981346

0.288636 15.981346
0.292862 15.979069
0.297088 15.971988
0.301314 15.959710
0.305540 15.941830
0.309765 15.917955
0.313991 15.887735
0.318217 15.850886
0.322443 15.807219
0.326669 15.756667
0.330895 15.699306
0.335121 15.635376
0.339347 15.565286
0.343573 15.489621
0.347799 15.409138
0.352025 15.324753
0.356251 15.237524
0.360476 15.148624
0.364702 15.059313
0.368928 14.970901
0.373154 14.884715
0.377380 14.802061
0.381606 14.724188
0.385832 14.652253
0.390058 14.587278
0.394284 14.530115
0.398510 14.481394
0.402736 14.441469
0.406962 14.410378
0.411187 14.387812
0.415413 14.373126
0.419639 14.365405
0.423865 14.363566
0.428091 14.366498
0.432317 14.373227
0.436543 14.383116
0.440769 14.396152
0.444995 14.413400
0.449221 14.437681
0.453447 14.473997
0.457673 14.527870
0.461898 14.600569
0.466124 14.686695
0.470350 14.777974
0.474576 14.867233
0.478802 14.949295
0.483028 15.020526
0.487254 15.078334
0.491480 15.120871
0.495706 15.146883
0.499932 15.155634


0.000000 20.610036
0.003660 20.584834
0.007319 20.509785
0.010979 20.386546
0.014639 20.217848
0.018299 20.007456
0.021958 19.760096
0.025618 19.481368
0.029278 19.177635
0.032938 18.855870
0.036597 18.523484
0.040257 18.188114
0.043917 17.857376
0.047577 17.538595
0.051237 17.238513
0.054896 16.963007
0.058556 16.716820
0.062216 16.503356
0.065876 16.324539
0.069535 16.180774
0.073195 16.071010
0.076855 15.992895
0.080515 15.943003
0.084174 15.917121
0.087834 15.910547
0.091494 15.918392
0.095154 15.935850
0.098813 15.958432
0.102473 15.982153
0.106133 16.003665
0.109793 16.020342
0.113452 16.030318
0.117112 16.032483
0.120772 16.026434
0.124432 16.012402
0.128091 15.991149
0.131751 15.963844
0.135411 15.931929
0.139071 15.896985
0.142730 15.860603
0.146390 15.824272
0.150050 15.789290
0.153710 15.756712
0.157369 15.727321
0.161029 15.701635
0.164689 15.679942
0.168349 15.662344
0.172009 15.648816
0.175668 15.639268
0.179328 15.633593
0.182988 15.631712

0.182988 15.631712
0.185101 15.631473
0.187214 15.630766
0.189327 15.629626
0.191440 15.628107
0.193553 15.626287
0.195665 15.624262
0.197778 15.622148
0.199891 15.620079
0.202004 15.618205
0.204117 15.616690
0.206230 15.615709
0.208343 15.615447
0.210456 15.616093
0.212569 15.617842
0.214682 15.620887
0.216795 15.625416
0.218908 15.631612
0.221021 15.639645
0.223134 15.649670
0.225247 15.661824
0.227360 15.676220
0.229473 15.692949
0.231586 15.712071
0.233699 15.733617
0.235812 15.757585
0.237925 15.783941
0.240038 15.812614
0.242151 15.843503
0.244264 15.876469
0.246377 15.911344
0.248490 15.947925
0.250603 15.985983
0.252715 16.025261
0.254828 16.065477
0.256941 16.106328
0.259054 16.147493
0.261167 16.188631
0.263280 16.229389
0.265393 16.269396
0.267506 16.308269
0.269619 16.345605
0.271732 16.380984
0.273845 16.413959
0.275958 16.444055
0.278071 16.470768
0.280184 16.493568
0.282297 16.511928
0.284410 16.525366
0.286523 16.533518
0.288636 16.536227

0.288636 16.536227
0.292862 16.526039
0.297088 16.498743
0.301314 16.460637
0.305540 16.418207
0.309765 16.377199
0.313991 16.342494
0.318217 16.318177
0.322443 16.307534
0.326669 16.313004
0.330895 16.336095
0.335121 16.377305
0.339347 16.436084
0.343573 16.510825
0.347799 16.598925
0.352025 16.696916
0.356251 16.800669
0.360476 16.905688
0.364702 17.007473
0.368928 17.101942
0.373154 17.185845
0.377380 17.257052
0.381606 17.314499
0.385832 17.357201
0.390058 17.379621
0.394284 17.354651
0.398510 17.260027
0.402736 17.129928
0.406962 16.988082
0.411187 16.848249
0.415413 16.722699
0.419639 16.623437
0.423865 16.561822
0.428091 16.547800
0.432317 16.589082
0.436543 16.690402
0.440769 16.853029
0.444995 17.074573
0.449221 17.349155
0.453447 17.667877
0.457673 18.019503
0.461898 18.391249
0.466124 18.769563
