# distance  frequency (bands are separated by blank lines)
# End points of segments: 
#   0.00000000 0.17248190 0.27206430 0.47122920 
0.000000 -0.018895
0.003450 -0.052531
0.006899 -0.099618
0.010349 -0.147373
0.013799 -0.194743
0.017248 -0.241313
0.020698 -0.286764
0.024147 -0.330796
0.027597 -0.373097
0.031047 -0.413333
0.034496 -0.451141
0.037946 -0.486119
0.041396 -0.517821
0.044845 -0.545748
0.048295 -0.569342
0.051745 -0.587972
0.055194 -0.600918
0.058644 -0.607349
0.062094 -0.606282
0.065543 -0.596514
0.068993 -0.576495
0.072442 -0.544075
0.075892 -0.495931
0.079342 -0.426046
0.082791 -0.320011
0.086241 -0.092963
0.089691 0.315303
0.093140 0.470182
0.096590 0.596088
0.100040 0.707740
0.103489 0.810127
0.106939 0.905485
0.110388 0.994950
0.113838 1.079145
0.117288 1.158429
0.120737 1.233012
0.124187 1.303019
0.127637 1.368522
0.131086 1.429553
0.134536 1.486119
0.137986 1.538198
0.141435 1.585747
0.144885 1.628701
0.148334 1.666976
0.151784 1.700471
0.155234 1.729078
0.158683 1.752683
0.162133 1.771177
0.165583 1.784463
0.169032 1.792467
0.172482 1.795141

0.172482 1.795141
0.174474 1.795079
0.176465 1.794894
0.178457 1.794584
0.180449 1.794146
0.182440 1.793575
0.184432 1.792869
0.186423 1.792020
0.188415 1.791023
0.190407 1.789870
0.192398 1.788556
0.194390 1.787074
0.196382 1.785415
0.198373 1.783573
0.200365 1.781544
0.202357 1.779321
0.204348 1.776900
0.206340 1.774280
0.208332 1.771458
0.210323 1.768437
0.212315 1.765218
0.214307 1.761807
0.216298 1.758211
0.218290 1.754441
0.220281 1.750509
0.222273 1.746431
0.224265 1.742224
0.226256 1.737911
0.228248 1.733513
0.230240 1.729058
0.232231 1.724572
0.234223 1.720085
0.236215 1.715628
0.238206 1.711234
0.240198 1.706936
0.242190 1.702765
0.244181 1.698753
0.246173 1.694933
0.248165 1.691332
0.250156 1.687978
0.252148 1.684893
0.254140 1.682099
0.256131 1.679610
0.258123 1.677438
0.260114 1.675589
0.262106 1.674063
0.264098 1.672855
0.266089 1.671955
0.268081 1.671344
0.270073 1.671000
0.272064 1.670893

0.272064 1.670893
0.276048 1.671242
0.280031 1.672042
0.284014 1.672861
0.287998 1.673202
0.291981 1.672514
0.295964 1.670220
0.299947 1.665728
0.303931 1.658456
0.307914 1.647848
0.311897 1.633388
0.315881 1.614612
0.319864 1.591110
0.323847 1.562530
0.327831 1.528577
0.331814 1.489003
0.335797 1.443600
0.339780 1.392197
0.343764 1.334642
0.347747 1.270800
0.351730 1.200533
0.355714 1.123684
0.359697 1.040044
0.363680 0.949285
0.367663 0.850843
0.371647 0.743655
0.375630 0.625544
0.379613 0.491421
0.383597 0.325574
0.387580 -0.114914
0.391563 -0.338634
0.395547 -0.444491
0.399530 -0.511588
0.403513 -0.554596
0.407496 -0.579811
0.411480 -0.590826
0.415463 -0.590068
0.419446 -0.579370
0.423430 -0.560214
0.427413 -0.533852
0.431396 -0.501367
0.435379 -0.463703
0.439363 -0.421694
0.443346 -0.376070
0.447329 -0.327480
0.451313 -0.276498
0.455296 -0.223648
0.459279 -0.169428
0.463263 -0.114397
0.467246 -0.059655
0.471229 -0.018895


0.000000 -0.002936
0.003450 0.095071
0.006899 0.189852
0.010349 0.284001
0.013799 0.377214
0.017248 0.469196
0.020698 0.559665
0.024147 0.648352
0.027597 0.735010
0.031047 0.819411
0.034496 0.901354
0.037946 0.980667
0.041396 1.057204
0.044845 1.130853
0.048295 1.201537
0.051745 1.269209
0.055194 1.333860
0.058644 1.395511
0.062094 1.454216
0.065543 1.510060
0.068993 1.563151
0.072442 1.613622
0.075892 1.661624
0.079342 1.707320
0.082791 1.750882
0.086241 1.792485
0.089691 1.832301
0.093140 1.870492
0.096590 1.907209
0.100040 1.942586
0.103489 1.976733
0.106939 2.009740
0.110388 2.041669
0.113838 2.072553
0.117288 2.102401
0.120737 2.131193
0.124187 2.158884
0.127637 2.185406
0.131086 2.210671
0.134536 2.234575
0.137986 2.257000
0.141435 2.277819
0.144885 2.296900
0.148334 2.314114
0.151784 2.329332
0.155234 2.342436
0.158683 2.353316
0.162133 2.361881
0.165583 2.368054
0.169032 2.371781
0.172482 2.373027

0.172482 2.373027
0.174474 2.375479
0.176465 2.382813
0.178457 2.394963
0.180449 2.411819
0.182440 2.433236
0.184432 2.459030
0.186423 2.488988
0.188415 2.522872
0.190407 2.560423
0.192398 2.601366
0.194390 2.645417
0.196382 2.692281
0.198373 2.741664
0.200365 2.793268
0.202357 2.846799
0.204348 2.901967
0.206340 2.958485
0.208332 3.016075
0.210323 3.074464
0.212315 3.133386
0.214307 3.192587
0.216298 3.251816
0.218290 3.310834
0.220281 3.369408
0.222273 3.427314
0.224265 3.484339
0.226256 3.540277
0.228248 3.594931
0.230240 3.648115
0.232231 3.699655
0.234223 3.749385
0.236215 3.797152
0.238206 3.842816
0.240198 3.886249
0.242190 3.927339
0.244181 3.965985
0.246173 4.002103
0.248165 4.035623
0.250156 4.066490
0.252148 4.094662
0.254140 4.120113
0.256131 4.142826
0.258123 4.162798
0.260114 4.180033
0.262106 4.194545
0.264098 4.206353
0.266089 4.215482
0.268081 4.221960
0.270073 4.225820
0.272064 4.227098

0.272064 4.227098
0.276048 4.222072
0.280031 4.207257
0.284014 4.183121
0.287998 4.150234
0.291981 4.109260
0.295964 4.060933
0.299947 4.006022
0.303931 3.945296
0.307914 3.879498
0.311897 3.809326
0.315881 3.735424
0.319864 3.658377
0.323847 3.578709
0.327831 3.496888
0.331814 3.413324
0.335797 3.328376
0.339780 3.242348
0.343764 3.155493
0.347747 3.068014
0.351730 2.980065
0.355714 2.891749
0.359697 2.803124
0.363680 2.714206
0.367663 2.624970
0.371647 2.535358
0.375630 2.445282
0.379613 2.354638
0.383597 2.263308
0.387580 2.171169
0.391563 2.078104
0.395547 1.984006
0.399530 1.888784
0.403513 1.792370
0.407496 1.694717
0.411480 1.595807
0.415463 1.495643
0.419446 1.394254
0.423430 1.291686
0.427413 1.188005
0.431396 1.083289
0.435379 0.977625
0.439363 0.871109
0.443346 0.763838
0.447329 0.655912
0.451313 0.547430
0.455296 0.438489
0.459279 0.329186
0.463263 0.219615
0.467246 0.109876
0.471229 -0.002936


0.000000 0.003518
0.003450 0.252602
0.006899 0.504353
0.010349 0.754459
0.013799 1.002116
0.017248 1.246549
0.020698 1.487024
0.024147 1.722848
0.027597 1.953380
0.031047 2.178034
0.034496 2.396282
0.037946 2.607657
0.041396 2.811754
0.044845 3.008228
0.048295 3.196793
0.051745 3.377218
0.055194 3.549324
0.058644 3.712979
0.062094 3.868091
0.065543 4.014605
0.068993 4.152501
0.072442 4.281786
0.075892 4.402491
0.079342 4.514675
0.082791 4.618420
0.086241 4.713833
0.089691 4.801050
0.093140 4.880237
0.096590 4.951596
0.100040 4.992900
0.103489 4.951076
0.106939 4.909557
0.110388 4.868427
0.113838 4.827783
0.117288 4.787732
0.120737 4.748398
0.124187 4.709926
0.127637 4.672480
0.131086 4.636250
0.134536 4.601449
0.137986 4.568314
0.141435 4.537103
0.144885 4.508092
0.148334 4.481568
0.151784 4.457822
0.155234 4.437140
0.158683 4.419792
0.162133 4.406020
0.165583 4.396027
0.169032 4.389968
0.172482 4.387937

0.172482 4.387937
0.174474 4.387964
0.176465 4.388046
0.178457 4.388182
0.180449 4.388369
0.182440 4.388606
0.184432 4.388890
0.186423 4.389218
0.188415 4.389587
0.190407 4.389991
0.192398 4.390427
0.194390 4.390890
0.196382 4.391375
0.198373 4.391877
0.200365 4.392391
0.202357 4.392912
0.204348 4.393434
0.206340 4.393953
0.208332 4.394465
0.210323 4.394963
0.212315 4.395445
0.214307 4.395906
0.216298 4.396341
0.218290 4.396748
0.220281 4.397123
0.222273 4.397462
0.224265 4.397763
0.226256 4.398022
0.228248 4.398238
0.230240 4.398406
0.232231 4.398526
0.234223 4.398595
0.236215 4.398610
0.238206 4.398571
0.240198 4.398475
0.242190 4.398322
0.244181 4.398113
0.246173 4.397847
0.248165 4.397527
0.250156 4.397156
0.252148 4.396739
0.254140 4.396283
0.256131 4.395796
0.258123 4.395291
0.260114 4.394781
0.262106 4.394283
0.264098 4.393817
0.266089 4.393405
0.268081 4.393073
0.270073 4.392850
0.272064 4.392769

0.272064 4.392769
0.276048 4.393168
0.280031 4.394573
0.284014 4.397312
0.287998 4.401724
0.291981 4.408144
0.295964 4.416877
0.299947 4.428189
0.303931 4.442286
0.307914 4.459304
0.311897 4.479303
0.315881 4.502263
0.319864 4.528094
0.323847 4.556640
0.327831 4.587695
0.331814 4.621018
0.335797 4.656349
0.339780 4.693425
0.343764 4.731993
0.347747 4.771823
0.351730 4.812710
0.355714 4.854482
0.359697 4.896999
0.363680 4.940150
0.367663 4.983849
0.371647 4.923549
0.375630 4.848118
0.379613 4.762852
0.383597 4.667646
0.387580 4.562394
0.391563 4.446975
0.395547 4.321242
0.399530 4.185029
0.403513 4.038148
0.407496 3.880409
0.411480 3.711631
0.415463 3.531673
0.419446 3.340447
0.423430 3.137950
0.427413 2.924282
0.431396 2.699663
0.435379 2.464451
0.439363 2.219150
0.443346 1.964411
0.447329 1.701032
0.451313 1.429953
0.455296 1.152242
0.459279 0.869080
0.463263 0.581743
0.467246 0.291580
0.471229 0.003518


0.000000 5.872872
0.003450 5.871292
0.006899 5.866565
0.010349 5.858729
0.013799 5.847847
0.017248 5.834004
0.020698 5.817309
0.024147 5.797886
0.027597 5.775876
0.031047 5.751435
0.034496 5.724726
0.037946 5.695919
0.041396 5.665187
0.044845 5.632703
0.048295 5.598638
0.051745 5.563158
0.055194 5.526422
0.058644 5.488583
0.062094 5.449783
0.065543 5.410160
0.068993 5.369838
0.072442 5.328938
0.075892 5.287570
0.079342 5.245838
0.082791 5.203841
0.086241 5.161669
0.089691 5.119410
0.093140 5.077143
0.096590 5.034947
0.100040 5.015364
0.103489 5.071820
0.106939 5.121286
0.110388 5.164122
0.113838 5.200731
0.117288 5.231551
0.120737 5.257051
0.124187 5.277726
0.127637 5.294084
0.131086 5.306645
0.134536 5.315926
0.137986 5.322435
0.141435 5.326664
0.144885 5.329079
0.148334 5.330114
0.151784 5.330165
0.155234 5.329587
0.158683 5.328684
0.162133 5.327712
0.165583 5.326872
0.169032 5.326310
0.172482 5.326113

0.172482 5.326113
0.174474 5.325834
0.176465 5.324998
0.178457 5.323606
0.180449 5.321656
0.182440 5.319149
0.184432 5.316087
0.186423 5.312470
0.188415 5.308301
0.190407 5.303583
0.192398 5.298320
0.194390 5.292521
0.196382 5.286192
0.198373 5.279346
0.200365 5.271997
0.202357 5.264162
0.204348 5.255861
0.206340 5.247119
0.208332 5.237963
0.210323 5.228426
0.212315 5.218544
0.214307 5.208357
0.216298 5.197908
0.218290 5.187245
0.220281 5.176419
0.222273 5.165484
0.224265 5.154495
0.226256 5.143512
0.228248 5.132593
0.230240 5.121797
0.232231 5.111184
0.234223 5.100812
0.236215 5.090735
0.238206 5.081005
0.240198 5.071671
0.242190 5.062775
0.244181 5.054354
0.246173 5.046440
0.248165 5.039059
0.250156 5.032229
0.252148 5.025964
0.254140 5.020274
0.256131 5.015163
0.258123 5.010634
0.260114 5.006689
0.262106 5.003329
0.264098 5.000559
0.266089 4.998385
0.268081 4.996815
0.270073 4.995862
0.272064 4.995541

0.272064 4.995541
0.276048 4.996859
0.280031 5.000894
0.284014 5.007723
0.287998 5.017332
0.291981 5.029592
0.295964 5.044253
0.299947 5.060948
0.303931 5.079208
0.307914 5.098472
0.311897 5.118100
0.315881 5.137378
0.319864 5.155534
0.323847 5.171745
0.327831 5.185156
0.331814 5.194892
0.335797 5.200084
0.339780 5.199883
0.343764 5.193482
0.347747 5.180139
0.351730 5.159189
0.355714 5.130058
0.359697 5.092268
0.363680 5.045435
0.367663 4.989268
0.371647 5.028029
0.375630 5.072629
0.379613 5.117595
0.383597 5.162862
0.387580 5.208357
0.391563 5.253984
0.395547 5.299628
0.399530 5.345145
0.403513 5.390368
0.407496 5.435103
0.411480 5.479129
0.415463 5.522207
0.419446 5.564077
0.423430 5.604463
0.427413 5.643080
0.431396 5.679633
0.435379 5.713826
0.439363 5.745369
0.443346 5.773977
0.447329 5.799383
0.451313 5.821339
0.455296 5.839625
0.459279 5.854053
0.463263 5.864470
0.467246 5.870766
0.471229 5.872872


0.000000 12.605451
0.003450 12.605658
0.006899 12.606268
0.010349 12.607252
0.013799 12.574983
0.017248 12.525557
0.020698 12.466714
0.024147 12.399367
0.027597 12.324570
0.031047 12.243507
0.034496 12.157472
0.037946 12.067857
0.041396 11.976126
0.044845 11.883795
0.048295 11.792403
0.051745 11.703488
0.055194 11.618554
0.058644 11.539044
0.062094 11.466306
0.065543 11.401565
0.068993 11.345898
0.072442 11.300205
0.075892 11.265192
0.079342 11.241358
0.082791 11.228985
0.086241 11.228132
0.089691 11.238644
0.093140 11.260160
0.096590 11.292126
0.100040 11.333814
0.103489 11.384346
0.106939 11.442718
0.110388 11.507823
0.113838 11.481463
0.117288 11.453049
0.120737 11.425992
0.124187 11.400293
0.127637 11.375970
0.131086 11.353052
0.134536 11.331583
0.137986 11.311618
0.141435 11.293223
0.144885 11.276470
0.148334 11.261438
0.151784 11.248207
0.155234 11.236854
0.158683 11.227453
0.162133 11.220068
0.165583 11.214753
0.169032 11.211547
0.172482 11.210475

0.172482 11.210475
0.174474 11.207766
0.176465 11.199672
0.178457 11.186287
0.180449 11.167762
0.182440 11.144299
0.184432 11.116135
0.186423 11.083540
0.188415 11.046800
0.190407 11.006215
0.192398 10.962090
0.194390 10.914728
0.196382 10.864434
0.198373 10.811504
0.200365 10.756232
0.202357 10.698905
0.204348 10.639804
0.206340 10.579206
0.208332 10.517384
0.210323 10.454603
0.212315 10.391128
0.214307 10.327218
0.216298 10.263127
0.218290 10.199109
0.220281 10.135408
0.222273 10.072268
0.224265 10.009926
0.226256 9.948611
0.228248 9.888548
0.230240 9.829952
0.232231 9.773029
0.234223 9.717976
0.236215 9.664978
0.238206 9.614209
0.240198 9.565828
0.242190 9.519982
0.244181 9.476801
0.246173 9.436400
0.248165 9.398877
0.250156 9.364314
0.252148 9.332775
0.254140 9.304306
0.256131 9.278938
0.258123 9.256682
0.260114 9.237534
0.262106 9.221476
0.264098 9.208474
0.266089 9.198479
0.268081 9.191433
0.270073 9.187264
0.272064 9.185893

0.272064 9.185893
0.276048 9.191192
0.280031 9.206567
0.284014 9.231209
0.287998 9.264301
0.291981 9.305057
0.295964 9.352735
0.299947 9.406658
0.303931 9.466212
0.307914 9.530840
0.311897 9.600037
0.315881 9.673334
0.319864 9.750289
0.323847 9.830475
0.327831 9.913472
0.331814 9.998862
0.335797 10.086219
0.339780 10.175111
0.343764 10.265087
0.347747 10.355680
0.351730 10.446393
0.355714 10.536688
0.359697 10.625971
0.363680 10.713576
0.367663 10.798742
0.371647 10.880613
0.375630 10.958288
0.379613 11.030965
0.383597 11.098249
0.387580 11.160582
0.391563 11.219539
0.395547 11.277688
0.399530 11.337958
0.403513 11.402917
0.407496 11.474317
0.411480 11.552963
0.415463 11.638788
0.419446 11.731007
0.423430 11.828272
0.427413 11.928831
0.431396 12.030656
0.435379 12.131556
0.439363 12.229284
0.443346 12.321618
0.447329 12.406441
0.451313 12.481801
0.455296 12.545963
0.459279 12.597454
0.463263 12.606512
0.467246 12.605725
0.471229 12.605451


0.000000 12.605451
0.003450 12.606455
0.006899 12.609472
0.010349 12.614230
0.013799 12.608564
0.017248 12.606352
0.020698 12.581098
0.024147 12.551920
0.027597 12.519129
0.031047 12.483067
0.034496 12.444101
0.037946 12.402618
0.041396 12.359013
0.044845 12.313687
0.048295 12.267036
0.051745 12.219449
0.055194 12.171294
0.058644 12.122921
0.062094 12.074652
0.065543 12.026778
0.068993 11.979555
0.072442 11.933205
0.075892 11.887913
0.079342 11.843827
0.082791 11.801062
0.086241 11.759698
0.089691 11.719789
0.093140 11.681362
0.096590 11.644424
0.100040 11.608965
0.103489 11.574965
0.106939 11.542400
0.110388 11.511240
0.113838 11.578480
0.117288 11.653458
0.120737 11.731499
0.124187 11.811344
0.127637 11.891748
0.131086 11.971500
0.134536 12.049441
0.137986 12.124470
0.141435 12.195564
0.144885 12.261777
0.148334 12.322252
0.151784 12.376228
0.155234 12.423037
0.158683 12.462112
0.162133 12.492989
0.165583 12.515303
0.169032 12.528796
0.172482 12.533311

0.172482 12.533311
0.174474 12.533809
0.176465 12.535280
0.178457 12.537653
0.180449 12.540819
0.182440 12.544634
0.184432 12.548932
0.186423 12.553536
0.188415 12.558263
0.190407 12.562935
0.192398 12.567385
0.194390 12.571459
0.196382 12.575023
0.198373 12.577958
0.200365 12.580168
0.202357 12.581574
0.204348 12.582115
0.206340 12.581749
0.208332 12.580450
0.210323 12.578205
0.212315 12.575018
0.214307 12.570903
0.216298 12.565886
0.218290 12.560005
0.220281 12.553306
0.222273 12.545844
0.224265 12.537682
0.226256 12.528889
0.228248 12.519541
0.230240 12.509719
0.232231 12.499507
0.234223 12.488996
0.236215 12.478278
0.238206 12.467446
0.240198 12.456597
0.242190 12.445827
0.244181 12.435233
0.246173 12.424908
0.248165 12.414947
0.250156 12.405439
0.252148 12.396469
0.254140 12.388118
0.256131 12.380462
0.258123 12.373566
0.260114 12.367492
0.262106 12.362289
0.264098 12.357998
0.266089 12.354647
0.268081 12.352255
0.270073 12.350827
0.272064 12.350355

0.272064 12.350355
0.276048 12.352181
0.280031 12.357400
0.284014 12.365463
0.287998 12.375617
0.291981 12.386933
0.295964 12.398342
0.299947 12.408683
0.303931 12.416755
0.307914 12.421375
0.311897 12.421437
0.315881 12.415961
0.319864 12.404145
0.323847 12.385407
0.327831 12.359419
0.331814 12.326134
0.335797 12.285804
0.339780 12.238994
0.343764 12.186580
0.347747 12.129753
0.351730 12.070001
0.355714 12.009100
0.359697 11.949086
0.363680 11.892232
0.367663 11.841007
0.371647 11.798012
0.375630 11.765867
0.379613 11.746981
0.383597 11.743174
0.387580 11.755174
0.391563 11.782251
0.395547 11.822300
0.399530 11.872434
0.403513 11.929675
0.407496 11.991410
0.411480 12.055530
0.415463 12.120390
0.419446 12.184707
0.423430 12.247460
0.427413 12.307816
0.431396 12.365074
0.435379 12.418629
0.439363 12.467956
0.443346 12.512587
0.447329 12.552114
0.451313 12.586178
0.455296 12.609159
0.459279 12.607711
0.463263 12.610839
0.467246 12.606791
0.471229 12.605451


0.000000 12.665734
0.003450 12.659953
0.006899 12.642697
0.010349 12.614525
0.013799 12.621645
0.017248 12.610143
0.020698 12.611916
0.024147 12.613806
0.027597 12.615736
0.031047 12.617636
0.034496 12.619447
0.037946 12.621135
0.041396 12.622690
0.044845 12.624138
0.048295 12.625545
0.051745 12.627023
0.055194 12.628732
0.058644 12.630881
0.062094 12.633730
0.065543 12.637583
0.068993 12.642787
0.072442 12.649717
0.075892 12.658774
0.079342 12.670362
0.082791 12.684879
0.086241 12.702701
0.089691 12.724159
0.093140 12.749527
0.096590 12.779002
0.100040 12.812692
0.103489 12.850603
0.106939 12.892630
0.110388 12.938553
0.113838 12.988035
0.117288 13.040627
0.120737 13.095777
0.124187 13.152837
0.127637 13.211080
0.131086 13.269714
0.134536 13.327904
0.137986 13.384788
0.141435 13.439495
0.144885 13.491169
0.148334 13.538984
0.151784 13.582165
0.155234 13.620002
0.158683 13.648074
0.162133 13.649882
0.165583 13.651084
0.169032 13.651770
0.172482 13.651993

0.172482 13.651993
0.174474 13.650482
0.176465 13.645963
0.178457 13.638474
0.180449 13.628073
0.182440 13.614836
0.184432 13.598854
0.186423 13.580229
0.188415 13.559077
0.190407 13.535527
0.192398 13.509721
0.194390 13.481814
0.196382 13.451972
0.198373 13.420371
0.200365 13.387198
0.202357 13.352648
0.204348 13.316921
0.206340 13.280224
0.208332 13.242766
0.210323 13.204758
0.212315 13.166411
0.214307 13.127933
0.216298 13.089530
0.218290 13.051399
0.220281 13.013733
0.222273 12.976713
0.224265 12.940510
0.226256 12.905282
0.228248 12.871171
0.230240 12.838305
0.232231 12.806795
0.234223 12.776733
0.236215 12.748192
0.238206 12.721226
0.240198 12.695872
0.242190 12.672148
0.244181 12.650055
0.246173 12.629581
0.248165 12.610702
0.250156 12.593385
0.252148 12.577597
0.254140 12.563302
0.256131 12.550472
0.258123 12.539087
0.260114 12.529140
0.262106 12.520634
0.264098 12.513589
0.266089 12.508035
0.268081 12.504011
0.270073 12.501563
0.272064 12.500737

0.272064 12.500737
0.276048 12.504119
0.280031 12.514404
0.284014 12.531621
0.287998 12.555484
0.291981 12.585293
0.295964 12.619771
0.299947 12.656742
0.303931 12.692554
0.307914 12.721582
0.311897 12.737776
0.315881 12.739102
0.319864 12.728335
0.323847 12.709293
0.327831 12.684907
0.331814 12.657284
0.335797 12.628063
0.339780 12.598615
0.343764 12.570135
0.347747 12.543660
0.351730 12.520067
0.355714 12.500057
0.359697 12.484137
0.363680 12.472613
0.367663 12.465589
0.371647 12.462970
0.375630 12.464486
0.379613 12.469713
0.383597 12.478104
0.387580 12.489031
0.391563 12.501814
0.395547 12.515763
0.399530 12.530211
0.403513 12.544541
0.407496 12.558213
0.411480 12.570780
0.415463 12.581901
0.419446 12.591344
0.423430 12.598990
0.427413 12.604821
0.431396 12.608916
0.435379 12.611431
0.439363 12.612586
0.443346 12.612644
0.447329 12.611897
0.451313 12.610640
0.455296 12.614474
0.459279 12.617681
0.463263 12.635097
0.467246 12.658031
0.471229 12.665734


0.000000 12.665734
0.003450 12.663304
0.006899 12.656043
0.010349 12.644033
