# distance  frequency (bands are separated by blank lines)
# End points of segments: 
#   0.00000000 0.16529240 0.26072390 0.45158710 
0.000000 -0.024579
0.003306 -0.033470
0.006612 -0.079090
0.009917 -0.133740
0.013223 -0.191506
0.016529 -0.249135
0.019835 -0.305216
0.023141 -0.359130
0.026447 -0.410558
0.029753 -0.459296
0.033058 -0.505190
0.036364 -0.548113
0.039670 -0.587958
0.042976 -0.624644
0.046282 -0.658108
0.049588 -0.688313
0.052894 -0.715245
0.056199 -0.738911
0.059505 -0.759339
0.062811 -0.776577
0.066117 -0.790684
0.069423 -0.801735
0.072729 -0.809809
0.076035 -0.814988
0.079340 -0.817354
0.082646 -0.816982
0.085952 -0.813939
0.089258 -0.808280
0.092564 -0.800043
0.095870 -0.789253
0.099175 -0.775920
0.102481 -0.760036
0.105787 -0.741583
0.109093 -0.720532
0.112399 -0.696850
0.115705 -0.670501
0.119011 -0.641454
0.122316 -0.609686
0.125622 -0.575187
0.128928 -0.537966
0.132234 -0.498051
0.135540 -0.455491
0.138846 -0.410354
0.142151 -0.362718
0.145457 -0.312647
0.148763 -0.260139
0.152069 -0.204978
0.155375 -0.146221
0.158681 -0.079148
0.161987 0.054402
0.165292 0.077848

0.165292 0.077848
0.167201 0.064892
0.169110 -0.036487
0.171018 -0.102715
0.172927 -0.153031
0.174836 -0.199743
0.176744 -0.244819
0.178653 -0.288918
0.180561 -0.332317
0.182470 -0.375144
0.184379 -0.417456
0.186287 -0.459271
0.188196 -0.500588
0.190105 -0.541392
0.192013 -0.581658
0.193922 -0.621355
0.195830 -0.660448
0.197739 -0.698899
0.199648 -0.736666
0.201556 -0.773708
0.203465 -0.809979
0.205374 -0.845435
0.207282 -0.880030
0.209191 -0.913720
0.211099 -0.946461
0.213008 -0.978208
0.214917 -1.008918
0.216825 -1.038552
0.218734 -1.067070
0.220643 -1.094435
0.222551 -1.120614
0.224460 -1.145574
0.226369 -1.169288
0.228277 -1.191730
0.230186 -1.212879
0.232095 -1.232718
0.234003 -1.251231
0.235912 -1.268409
0.237820 -1.284244
0.239729 -1.298735
0.241638 -1.311882
0.243546 -1.323691
0.245455 -1.334169
0.247363 -1.343330
0.249272 -1.351189
0.251181 -1.357766
0.253089 -1.363082
0.254998 -1.367165
0.256907 -1.370040
0.258815 -1.371741
0.260724 -1.372300

0.260724 -1.372300
0.264541 -1.370138
0.268358 -1.363864
0.272176 -1.353812
0.275993 -1.340334
0.279810 -1.323795
0.283627 -1.304565
0.287445 -1.283011
0.291262 -1.259497
0.295079 -1.234377
0.298897 -1.207995
0.302714 -1.180683
0.306531 -1.152761
0.310348 -1.124541
0.314166 -1.096323
0.317983 -1.068403
0.321800 -1.041065
0.325617 -1.014585
0.329435 -0.989221
0.333252 -0.965206
0.337069 -0.942741
0.340886 -0.921974
0.344704 -0.902993
0.348521 -0.885808
0.352338 -0.870341
0.356156 -0.856418
0.359973 -0.843773
0.363790 -0.832050
0.367607 -0.820814
0.371425 -0.809575
0.375242 -0.797802
0.379059 -0.784949
0.382876 -0.770478
0.386694 -0.753875
0.390511 -0.734669
0.394328 -0.712447
0.398145 -0.686861
0.401963 -0.657637
0.405780 -0.624576
0.409597 -0.587556
0.413415 -0.546529
0.417232 -0.501517
0.421049 -0.452603
0.424866 -0.399928
0.428683 -0.343686
0.432501 -0.284151
0.436318 -0.221778
0.440135 -0.157608
0.443953 -0.094511
0.447770 -0.039629
0.451587 -0.024579


0.000000 -0.024465
0.003306 0.109611
0.006612 0.223513
0.009917 0.336929
0.013223 0.450733
0.016529 0.565208
0.019835 0.680504
0.023141 0.796697
0.026447 0.913808
0.029753 1.031810
0.033058 1.150634
0.036364 1.270177
0.039670 1.390312
0.042976 1.510896
0.046282 1.631776
0.049588 1.752800
0.052894 1.873813
0.056199 1.994669
0.059505 2.115226
0.062811 2.235345
0.066117 2.354883
0.069423 2.473695
0.072729 2.591618
0.076035 2.708469
0.079340 2.824038
0.082646 2.938077
0.085952 3.050303
0.089258 3.160388
0.092564 3.267966
0.095870 3.372637
0.099175 3.473972
0.102481 3.571528
0.105787 3.664860
0.109093 3.753539
0.112399 3.837170
0.115705 3.915407
0.119011 3.987969
0.122316 4.054653
0.125622 4.115342
0.128928 4.170007
0.132234 4.218706
0.135540 4.261576
0.138846 4.298821
0.142151 4.330696
0.145457 4.357490
0.148763 4.379506
0.152069 4.397039
0.155375 4.410361
0.158681 4.419700
0.161987 4.425231
0.165292 4.427062

0.165292 4.427062
0.167201 4.430389
0.169110 4.440362
0.171018 4.456960
0.172927 4.480148
0.174836 4.509874
0.176744 4.546073
0.178653 4.588661
0.180561 4.637536
0.182470 4.692577
0.184379 4.753645
0.186287 4.820579
0.188196 4.893196
0.190105 4.971292
0.192013 5.054639
0.193922 5.142990
0.195830 5.236073
0.197739 5.333595
0.199648 5.435245
0.201556 5.540689
0.203465 5.649576
0.205374 5.761538
0.207282 5.876193
0.209191 5.993142
0.211099 6.111979
0.213008 6.232285
0.214917 6.353633
0.216825 6.475592
0.218734 6.597727
0.220643 6.719600
0.222551 6.840774
0.224460 6.960811
0.226369 7.079278
0.228277 7.195744
0.230186 7.309780
0.232095 7.420959
0.234003 7.528857
0.235912 7.633045
0.237820 7.733086
0.239729 7.828533
0.241638 7.918912
0.243546 8.003717
0.245455 8.082395
0.247363 8.154334
0.249272 8.218850
0.251181 8.275191
0.253089 8.322558
0.254998 8.360164
0.256907 8.387334
0.258815 8.403639
0.260724 8.409018

0.260724 8.409018
0.264541 8.388783
0.268358 8.333042
0.272176 8.249687
0.275993 8.145114
0.279810 8.023663
0.283627 7.888135
0.287445 7.740405
0.291262 7.581848
0.295079 7.413595
0.298897 7.236679
0.302714 7.052108
0.306531 6.860887
0.310348 6.664023
0.314166 6.462508
0.317983 6.257302
0.321800 6.049311
0.325617 5.839372
0.329435 5.628237
0.333252 5.416573
0.337069 5.204956
0.340886 4.993883
0.344704 4.783770
0.348521 4.574971
0.352338 4.367781
0.356156 4.162452
0.359973 3.959196
0.363790 3.758200
0.367607 3.559624
0.371425 3.363615
0.375242 3.170303
0.379059 2.979810
0.382876 2.792247
0.386694 2.607723
0.390511 2.426341
0.394328 2.248200
0.398145 2.073402
0.401963 1.902048
0.405780 1.734237
0.409597 1.570071
0.413415 1.409645
0.417232 1.253040
0.421049 1.100313
0.424866 0.951472
0.428683 0.806460
0.432501 0.665119
0.436318 0.527158
0.440135 0.392123
0.443953 0.259325
0.447770 0.127454
0.451587 -0.024465


0.000000 0.000581
0.003306 0.267575
0.006612 0.536676
0.009917 0.805084
0.013223 1.072936
0.016529 1.340153
0.019835 1.606640
0.023141 1.872308
0.026447 2.137088
0.029753 2.400933
0.033058 2.663815
0.036364 2.925729
0.039670 3.186685
0.042976 3.446707
0.046282 3.705824
0.049588 3.964066
0.052894 4.221453
0.056199 4.477989
0.059505 4.733652
0.062811 4.988386
0.066117 5.242090
0.069423 5.494615
0.072729 5.745754
0.076035 5.995238
0.079340 6.242735
0.082646 6.487843
0.085952 6.730096
0.089258 6.968964
0.092564 7.203855
0.095870 7.434126
0.099175 7.659089
0.102481 7.878021
0.105787 8.090177
0.109093 8.294800
0.112399 8.491138
0.115705 8.678460
0.119011 8.856065
0.122316 9.023304
0.125622 9.179585
0.128928 9.324394
0.132234 9.457295
0.135540 9.577940
0.138846 9.584375
0.142151 9.548738
0.145457 9.517380
0.148763 9.490487
0.152069 9.468230
0.155375 9.450754
0.158681 9.438182
0.161987 9.430602
0.165292 9.428069

0.165292 9.428069
0.167201 9.427899
0.169110 9.427390
0.171018 9.426544
0.172927 9.425362
0.174836 9.423848
0.176744 9.422008
0.178653 9.419845
0.180561 9.417367
0.182470 9.414582
0.184379 9.411499
0.186287 9.408128
0.188196 9.404480
0.190105 9.400569
0.192013 9.396409
0.193922 9.392015
0.195830 9.387405
0.197739 9.382598
0.199648 9.377612
0.201556 9.372470
0.203465 9.367193
0.205374 9.361806
0.207282 9.356332
0.209191 9.350796
0.211099 9.345225
0.213008 9.339643
0.214917 9.334077
0.216825 9.328550
0.218734 9.323087
0.220643 9.317710
0.222551 9.312441
0.224460 9.307299
0.226369 9.302301
0.228277 9.297460
0.230186 9.292788
0.232095 9.288296
0.234003 9.283990
0.235912 9.279877
0.237820 9.275961
0.239729 9.272246
0.241638 9.268738
0.243546 9.265446
0.245455 9.262378
0.247363 9.259551
0.249272 9.256984
0.251181 9.254703
0.253089 9.252738
0.254998 9.241925
0.256907 9.230462
0.258815 9.223619
0.260724 9.221404

0.260724 9.221404
0.264541 9.228927
0.268358 9.246464
0.272176 9.260856
0.275993 9.271289
0.279810 9.285532
0.283627 9.286859
0.287445 9.272571
0.291262 9.245976
0.295079 9.206719
0.298897 9.154621
0.302714 9.089597
0.306531 9.011616
0.310348 8.920697
0.314166 8.816909
0.317983 8.700394
0.321800 8.571374
0.325617 8.430165
0.329435 8.277175
0.333252 8.112906
0.337069 7.937932
0.340886 7.752889
0.344704 7.558447
0.348521 7.355290
0.352338 7.144095
0.356156 6.925509
0.359973 6.700134
0.363790 6.468520
0.367607 6.231147
0.371425 5.988434
0.375242 5.740727
0.379059 5.488313
0.382876 5.231420
0.386694 4.970225
0.390511 4.704868
0.394328 4.435459
0.398145 4.162090
0.401963 3.884844
0.405780 3.603805
0.409597 3.319070
0.413415 3.030752
0.417232 2.738993
0.421049 2.443964
0.424866 2.145872
0.428683 1.844965
0.432501 1.541531
0.436318 1.235896
0.440135 0.928421
0.443953 0.619471
0.447770 0.309249
0.451587 0.000581


0.000000 1.494576
0.003306 1.562552
0.006612 1.750781
0.009917 2.025517
0.013223 2.355251
0.016529 2.718054
0.019835 3.100090
0.023141 3.492682
0.026447 3.890196
0.029753 4.288800
0.033058 4.685755
0.036364 5.079012
0.039670 5.466984
0.042976 5.848400
0.046282 6.222219
0.049588 6.587579
0.052894 6.943755
0.056199 7.290137
0.059505 7.626215
0.062811 7.951562
0.066117 8.265825
0.069423 8.568718
0.072729 8.860008
0.076035 9.139509
0.079340 9.407056
0.082646 9.662451
0.085952 9.905293
0.089258 10.134012
0.092564 10.331459
0.095870 10.339965
0.099175 10.272301
0.102481 10.201716
0.105787 10.132247
0.109093 10.064722
0.112399 9.999492
0.115705 9.936785
0.119011 9.876795
0.122316 9.819703
0.125622 9.765693
0.128928 9.714956
0.132234 9.667689
0.135540 9.624093
0.138846 9.686070
0.142151 9.781509
0.145457 9.864160
0.148763 9.933988
0.152069 9.991007
0.155375 10.035264
0.158681 10.066818
0.161987 10.085724
0.165292 10.092021

0.165292 10.092021
0.167201 10.091551
0.169110 10.090141
0.171018 10.087793
0.172927 10.084507
0.174836 10.080286
0.176744 10.075132
0.178653 10.069048
0.180561 10.062038
0.182470 10.054107
0.184379 10.045259
0.186287 10.035499
0.188196 10.024834
0.190105 10.013270
0.192013 10.000814
0.193922 9.987473
0.195830 9.973255
0.197739 9.958169
0.199648 9.942223
0.201556 9.925427
0.203465 9.907789
0.205374 9.889320
0.207282 9.870031
0.209191 9.849932
0.211099 9.829036
0.213008 9.807354
0.214917 9.784902
0.216825 9.761693
0.218734 9.737747
0.220643 9.713081
0.222551 9.687721
0.224460 9.661693
0.226369 9.635032
0.228277 9.607777
0.230186 9.579981
0.232095 9.551706
0.234003 9.523032
0.235912 9.494060
0.237820 9.464918
0.239729 9.435769
0.241638 9.406822
0.243546 9.378340
0.245455 9.350658
0.247363 9.324195
0.249272 9.299460
0.251181 9.277055
0.253089 9.257651
0.254998 9.251129
0.256907 9.249917
0.258815 9.249151
0.260724 9.248884

0.260724 9.248884
0.264541 9.250066
0.268358 9.253911
0.272176 9.266170
0.275993 9.281853
0.279810 9.289524
0.283627 9.303824
0.287445 9.326324
0.291262 9.353113
0.295079 9.384202
0.298897 9.419540
0.302714 9.459034
0.306531 9.502552
0.310348 9.549941
0.314166 9.601031
0.317983 9.655647
0.321800 9.713599
0.325617 9.774658
0.329435 9.838427
0.333252 9.903486
0.337069 9.949087
0.340886 9.879825
0.344704 9.774960
0.348521 9.653834
0.352338 9.517227
0.356156 9.364937
0.359973 9.196617
0.363790 9.011916
0.367607 8.810515
0.371425 8.592146
0.375242 8.356602
0.379059 8.103745
0.382876 7.833521
0.386694 7.545962
0.390511 7.241203
0.394328 6.919489
0.398145 6.581192
0.401963 6.226830
0.405780 5.857091
0.409597 5.472870
0.413415 5.075322
0.417232 4.665949
0.421049 4.246740
0.424866 3.820402
0.428683 3.390789
0.432501 2.963660
0.436318 2.548143
0.440135 2.159490
0.443953 1.823901
0.447770 1.584162
0.451587 1.494576


0.000000 1.494580
0.003306 1.566064
0.006612 1.762842
0.009917 2.048154
0.013223 2.389125
0.016529 2.763585
0.019835 3.157812
0.023141 3.563295
0.026447 3.974562
0.029753 4.387913
0.033058 4.800718
0.036364 5.211021
0.039670 5.617302
0.042976 6.018339
0.046282 6.413124
0.049588 6.800805
0.052894 7.180654
0.056199 7.552039
0.059505 7.914408
0.062811 8.267282
0.066117 8.610240
0.069423 8.942916
0.072729 9.264995
0.076035 9.576205
0.079340 9.876316
0.082646 10.165138
0.085952 10.442516
0.089258 10.517153
0.092564 10.461791
0.095870 10.585531
0.099175 10.775870
0.102481 10.959845
0.105787 11.133717
0.109093 11.296972
0.112399 11.449587
0.115705 11.591675
0.119011 11.723400
0.122316 11.844951
0.125622 11.956523
0.128928 12.058313
0.132234 12.150514
0.135540 12.233312
0.138846 12.306882
0.142151 12.371387
0.145457 12.426977
0.148763 12.473783
0.152069 12.511918
0.155375 12.541479
0.158681 12.562539
0.161987 12.575154
0.165292 12.579355

0.165292 12.579355
0.167201 12.572042
0.169110 12.550647
0.171018 12.516624
0.172927 12.471915
0.174836 12.418533
0.176744 12.358304
0.178653 12.292764
0.180561 12.223161
0.182470 12.150490
0.184379 12.075545
0.186287 11.998969
0.188196 11.921288
0.190105 11.842940
0.192013 11.764298
0.193922 11.685685
0.195830 11.607384
0.197739 11.529648
0.199648 11.452707
0.201556 11.376767
0.203465 11.302020
0.205374 11.228645
0.207282 11.156803
0.209191 11.086649
0.211099 11.018325
0.213008 10.951961
0.214917 10.887682
0.216825 10.825600
0.218734 10.765822
0.220643 10.708443
0.222551 10.653553
0.224460 10.601233
0.226369 10.551555
0.228277 10.504585
0.230186 10.460379
0.232095 10.418986
0.234003 10.380446
0.235912 10.344790
0.237820 10.312038
0.239729 10.282201
0.241638 10.255276
0.243546 10.231249
0.245455 10.210093
0.247363 10.191764
0.249272 10.176204
0.251181 10.163341
0.253089 10.153085
0.254998 10.145332
0.256907 10.139965
0.258815 10.136850
0.260724 10.135846

0.260724 10.135846
0.264541 10.139544
0.268358 10.149737
0.272176 10.165025
0.275993 10.183974
0.279810 10.205154
0.283627 10.227169
0.287445 10.248670
0.291262 10.268369
0.295079 10.285044
0.298897 10.297537
0.302714 10.304760
0.306531 10.305689
0.310348 10.299361
0.314166 10.284876
0.317983 10.261394
0.321800 10.228143
0.325617 10.184449
0.329435 10.129863
0.333252 10.065014
0.337069 10.009911
0.340886 10.059269
0.344704 10.133174
0.348521 10.211669
0.352338 10.293380
0.356156 10.377938
0.359973 10.465124
0.363790 10.554716
0.367607 10.646314
0.371425 10.661814
0.375242 10.271579
0.379059 9.863447
0.382876 9.440351
0.386694 9.003117
0.390511 8.552605
0.394328 8.089765
0.398145 7.615661
0.401963 7.131480
0.405780 6.638555
0.409597 6.138389
0.413415 5.632709
0.417232 5.123537
0.421049 4.613323
0.424866 4.105171
0.428683 3.603248
0.432501 3.113551
0.436318 2.645401
0.440135 2.214373
0.443953 1.847587
0.447770 1.589568
0.451587 1.494580


0.000000 12.207399
0.003306 12.203833
0.006612 12.193165
0.009917 12.175479
0.013223 12.150917
0.016529 12.119670
0.019835 12.081983
0.023141 12.038147
0.026447 11.988496
0.029753 11.933402
0.033058 11.873268
0.036364 11.808526
0.039670 11.739628
0.042976 11.667042
0.046282 11.591243
0.049588 11.512709
0.052894 11.431915
0.056199 11.349325
0.059505 11.265390
0.062811 11.180544
0.066117 11.095197
0.069423 11.009739
0.072729 10.924534
0.076035 10.839934
0.079340 10.756290
0.082646 10.674001
0.085952 10.593687
0.089258 10.708327
0.092564 10.962480
0.095870 11.204911
0.099175 11.435580
0.102481 11.654471
0.105787 11.861590
0.109093 12.056957
0.112399 12.240610
0.115705 12.412600
0.119011 12.572988
0.122316 12.721841
0.125622 12.859237
0.128928 12.985252
0.132234 13.099969
0.135540 13.203469
0.138846 13.295828
0.142151 13.377124
0.145457 13.447426
0.148763 13.506798
0.152069 13.555294
0.155375 13.592963
0.158681 13.619843
0.161987 13.635959
0.165292 13.641329

0.165292 13.641329
0.167201 13.647811
0.169110 13.666713
0.171018 13.696596
0.172927 13.706901
0.174836 13.699347
0.176744 13.690292
0.178653 13.679838
0.180561 13.668101
0.182470 13.655208
0.184379 13.641297
0.186287 13.626514
0.188196 13.611012
0.190105 13.594945
0.192013 13.578473
0.193922 13.561751
0.195830 13.544937
0.197739 13.528180
0.199648 13.511629
0.201556 13.495422
0.203465 13.479691
0.205374 13.464559
0.207282 13.450138
0.209191 13.436526
0.211099 13.423814
0.213008 13.412075
0.214917 13.401370
0.216825 13.391745
0.218734 13.383232
0.220643 13.375848
0.222551 13.369592
0.224460 13.364450
0.226369 13.360392
0.228277 13.357372
0.230186 13.355330
0.232095 13.354194
0.234003 13.353877
0.235912 13.354282
0.237820 13.355305
0.239729 13.356830
0.241638 13.358742
0.243546 13.360919
0.245455 13.363242
0.247363 13.365596
0.249272 13.367871
0.251181 13.369968
0.253089 13.371799
0.254998 13.373292
0.256907 13.374391
0.258815 13.375061
0.260724 13.375284

0.260724 13.375284
0.264541 13.374431
0.268358 13.372120
0.272176 13.368946
0.275993 13.365769
0.279810 13.363637
0.283627 13.363705
0.287445 13.367156
0.291262 13.375122
0.295079 13.388628
0.298897 13.408537
0.302714 13.435520
0.306531 13.470031
0.310348 13.512301
0.314166 13.562334
0.317983 13.619924
0.321800 13.684671
0.325617 13.756007
0.329435 13.833228
0.333252 13.671566
0.337069 13.447453
0.340886 13.206650
0.344704 12.948898
0.348521 12.674013
0.352338 12.381892
0.356156 12.072518
0.359973 11.745970
0.363790 11.402436
0.367607 11.042345
0.371425 10.743882
0.375242 10.836806
0.379059 10.933438
0.382876 11.031037
0.386694 11.129009
0.390511 11.226771
0.394328 11.323700
0.398145 11.419129
0.401963 11.512355
0.405780 11.602648
0.409597 11.689261
0.413415 11.771445
0.417232 11.848460
0.421049 11.919588
0.424866 11.984146
0.428683 12.041499
0.432501 12.091071
0.436318 12.132355
0.440135 12.164925
0.443953 12.188437
0.447770 12.202646
0.451587 12.207399


0.000000 15.576505
0.003306 15.575713
0.006612 15.573296
0.009917 15.569136
0.013223 15.563042
0.016529 15.554758
0.019835 15.543977
0.023141 15.530353
0.026447 15.513516
0.029753 15.493092
0.033058 15.468716
0.036364 15.440052
0.039670 15.406809
0.042976 15.368754
0.046282 15.325726
0.049588 15.277648
0.052894 15.224533
0.056199 15.166495
0.059505 15.103746
0.062811 15.036603
0.066117 14.965480
0.069423 14.890891
0.072729 14.813435
0.076035 14.733792
0.079340 14.652708
0.082646 14.570982
0.085952 14.489449
0.089258 14.408959
0.092564 14.330364
0.095870 14.254490
0.099175 14.182117
0.102481 14.113959
0.105787 14.050641
0.109093 13.992680
0.112399 13.940469
0.115705 13.894259
0.119011 13.854157
0.122316 13.820119
0.125622 13.791952
0.128928 13.769326
0.132234 13.751790
0.135540 13.738789
0.138846 13.729693
0.142151 13.723828
0.145457 13.720501
0.148763 13.719037
0.152069 13.718807
0.155375 13.719253
0.158681 13.719918
0.161987 13.720457
0.165292 13.720661

0.165292 13.720661
0.167201 13.719788
0.169110 13.717181
0.171018 13.712868
0.172927 13.735543
0.174836 13.781572
0.176744 13.832898
0.178653 13.888033
0.180561 13.945788
0.182470 14.005234
0.184379 14.065648
0.186287 14.126467
0.188196 14.187251
0.190105 14.247654
0.192013 14.307398
0.193922 14.366264
0.195830 14.424071
0.197739 14.480675
0.199648 14.535957
0.201556 14.589820
0.203465 14.642187
0.205374 14.692992
0.207282 14.742184
0.209191 14.789721
0.211099 14.835571
0.213008 14.879707
0.214917 14.922113
0.216825 14.962773
0.218734 15.001679
0.220643 15.038826
0.222551 15.074213
0.224460 15.107841
0.226369 15.139712
0.228277 15.169832
0.230186 15.198207
0.232095 15.224843
0.234003 15.249748
0.235912 15.272930
0.237820 15.294395
0.239729 15.314149
0.241638 15.332198
0.243546 15.348547
0.245455 15.363197
0.247363 15.376149
0.249272 15.387401
0.251181 15.396951
0.253089 15.404793
0.254998 15.410916
0.256907 15.415310
0.258815 15.417959
0.260724 15.418847

0.260724 15.418847
0.264541 15.415249
0.268358 15.404308
0.272176 15.385761
0.275993 15.359289
0.279810 15.324522
0.283627 15.281036
0.287445 15.228360
0.291262 15.165980
0.295079 15.093347
0.298897 15.009879
0.302714 14.914973
0.306531 14.808016
0.310348 14.688385
0.314166 14.555468
0.317983 14.408662
0.321800 14.247391
0.325617 14.071111
0.329435 13.879321
0.333252 13.915530
0.337069 14.002036
0.340886 14.091826
0.344704 14.183970
0.348521 14.277541
0.352338 14.371637
0.356156 14.465394
0.359973 14.557996
0.363790 14.648686
0.367607 14.736772
0.371425 14.821635
0.375242 14.902734
0.379059 14.979609
0.382876 15.051886
0.386694 15.119277
0.390511 15.181584
0.394328 15.238692
0.398145 15.290570
0.401963 15.337265
0.405780 15.378894
0.409597 15.415635
0.413415 15.447720
0.417232 15.475422
0.421049 15.499041
0.424866 15.518895
0.428683 15.535304
0.432501 15.548576
0.436318 15.558998
0.440135 15.566822
0.443953 15.572255
