# distance  frequency (bands are separated by blank lines)
# End points of segments: 
#   0.00000000 0.15514230 0.31028460 0.46542700 0.62056930 
0.000000 -0.043021
0.003103 -0.264286
0.006206 -0.371131
0.009309 -0.449937
0.012411 -0.512178
0.015514 -0.561850
0.018617 -0.598787
0.021720 -0.619751
0.024823 -0.619392
0.027926 -0.590173
0.031029 -0.519889
0.034131 -0.379427
0.037234 0.182688
0.040337 0.510968
0.043440 0.731435
0.046543 0.920612
0.049646 1.090037
0.052748 1.242702
0.055851 1.379177
0.058954 1.499321
0.062057 1.602971
0.065160 1.690310
0.068263 1.762089
0.071365 1.819753
0.074468 1.865488
0.077571 1.902134
0.080674 1.932953
0.083777 1.961228
0.086880 1.989793
0.089983 2.020687
0.093085 2.055195
0.096188 2.094369
0.099291 2.139765
0.102394 2.193862
0.105497 2.259788
0.108600 2.340499
0.111702 2.437878
0.114805 2.552156
0.117908 2.681772
0.121011 2.823603
0.124114 2.901453
0.127217 2.941320
0.130320 2.978744
0.133422 3.013262
0.136525 3.044392
0.139628 3.071661
0.142731 3.094631
0.145834 3.112919
0.148937 3.126213
0.152039 3.134283
0.155142 3.136989

0.155142 3.136989
0.158245 3.141451
0.161348 3.154878
0.164451 3.177366
0.167554 3.208970
0.170657 3.249588
0.173759 3.298853
0.176862 3.356046
0.179965 3.420047
0.183068 3.489293
0.186171 3.561716
0.189274 3.634623
0.192377 3.704545
0.195479 3.767283
0.198582 3.818780
0.201685 3.857067
0.204788 3.883548
0.207891 3.901884
0.210994 3.916006
0.214096 3.929163
0.217199 3.943833
0.220302 3.961856
0.223405 3.984500
0.226508 4.012454
0.229611 4.045818
0.232713 4.084135
0.235816 4.126504
0.238919 4.171749
0.242022 4.218596
0.245125 4.265852
0.248228 4.312506
0.251331 4.357789
0.254433 4.401168
0.257536 4.442311
0.260639 4.481040
0.263742 4.517279
0.266845 4.551012
0.269948 4.582256
0.273050 4.611037
0.276153 4.637385
0.279256 4.661325
0.282359 4.682879
0.285462 4.702067
0.288565 4.718910
0.291668 4.733429
0.294770 4.745649
0.297873 4.755596
0.300976 4.763298
0.304079 4.768779
0.307182 4.772058
0.310285 4.773150

0.310285 4.773150
0.313387 4.772058
0.316490 4.768779
0.319593 4.763298
0.322696 4.755596
0.325799 4.745649
0.328902 4.733429
0.332005 4.718910
0.335107 4.702067
0.338210 4.682879
0.341313 4.661325
0.344416 4.637385
0.347519 4.611037
0.350622 4.582256
0.353724 4.551012
0.356827 4.517279
0.359930 4.481040
0.363033 4.442311
0.366136 4.401168
0.369239 4.357789
0.372342 4.312506
0.375444 4.265852
0.378547 4.218596
0.381650 4.171749
0.384753 4.126504
0.387856 4.084135
0.390959 4.045818
0.394062 4.012454
0.397164 3.984500
0.400267 3.961856
0.403370 3.943833
0.406473 3.929163
0.409576 3.916006
0.412679 3.901884
0.415781 3.883548
0.418884 3.857067
0.421987 3.818780
0.425090 3.767283
0.428193 3.704545
0.431296 3.634623
0.434399 3.561716
0.437501 3.489293
0.440604 3.420047
0.443707 3.356046
0.446810 3.298853
0.449913 3.249588
0.453016 3.208970
0.456118 3.177366
0.459221 3.154878
0.462324 3.141451
0.465427 3.136989

0.465427 3.136989
0.468530 3.134283
0.471633 3.126213
0.474735 3.112919
0.477838 3.094631
0.480941 3.071661
0.484044 3.044392
0.487147 3.013262
0.490250 2.978744
0.493353 2.941320
0.496455 2.901453
0.499558 2.823603
0.502661 2.681772
0.505764 2.552156
0.508867 2.437878
0.511970 2.340499
0.515073 2.259788
0.518175 2.193862
0.521278 2.139765
0.524381 2.094369
0.527484 2.055195
0.530587 2.020687
0.533690 1.989793
0.536792 1.961228
0.539895 1.932953
0.542998 1.902134
0.546101 1.865488
0.549204 1.819753
0.552307 1.762089
0.555410 1.690310
0.558512 1.602971
0.561615 1.499321
0.564718 1.379177
0.567821 1.242702
0.570924 1.090037
0.574027 0.920612
0.577129 0.731435
0.580232 0.510968
0.583335 0.182688
0.586438 -0.379427
0.589541 -0.519889
0.592644 -0.590173
0.595746 -0.619392
0.598849 -0.619751
0.601952 -0.598787
0.605055 -0.561850
0.608158 -0.512178
0.611261 -0.449937
0.614364 -0.371131
0.617466 -0.264286
0.620569 -0.043021


0.000000 -0.007127
0.003103 0.071253
0.006206 0.143481
0.009309 0.216456
0.012411 0.290656
0.015514 0.366438
0.018617 0.444077
0.021720 0.523770
0.024823 0.605619
0.027926 0.689630
0.031029 0.775713
0.034131 0.863681
0.037234 0.953259
0.040337 1.044100
0.043440 1.135796
0.046543 1.227902
0.049646 1.319956
0.052748 1.411498
0.055851 1.502090
0.058954 1.591331
0.062057 1.678866
0.065160 1.764386
0.068263 1.847626
0.071365 1.928361
0.074468 2.006396
0.077571 2.081572
0.080674 2.153762
0.083777 2.222889
0.086880 2.288930
0.089983 2.351931
0.093085 2.412012
0.096188 2.469365
0.099291 2.524239
0.102394 2.576922
0.105497 2.627703
0.108600 2.676846
0.111702 2.724551
0.114805 2.770926
0.117908 2.815969
0.121011 2.859556
0.124114 2.973388
0.127217 3.126219
0.130320 3.277001
0.133422 3.420837
0.136525 3.553319
0.139628 3.670721
0.142731 3.770089
0.145834 3.849237
0.148937 3.906669
0.152039 3.941456
0.155142 3.953102

0.155142 3.953102
0.158245 3.956105
0.161348 3.964844
0.164451 3.978546
0.167554 3.996056
0.170657 4.016002
0.173759 4.036988
0.176862 4.057781
0.179965 4.077511
0.183068 4.095868
0.186171 4.113328
0.189274 4.131411
0.192377 4.152920
0.195479 4.181891
0.198582 4.222627
0.201685 4.277610
0.204788 4.346042
0.207891 4.424887
0.210994 4.510843
0.214096 4.601362
0.217199 4.694769
0.220302 4.790089
0.223405 4.886854
0.226508 4.980843
0.229611 5.010443
0.232713 5.042460
0.235816 5.076614
0.238919 5.112745
0.242022 5.150818
0.245125 5.190893
0.248228 5.233047
0.251331 5.277290
0.254433 5.323502
0.257536 5.371401
0.260639 5.420570
0.263742 5.470504
0.266845 5.520663
0.269948 5.570526
0.273050 5.619622
0.276153 5.667547
0.279256 5.713961
0.282359 5.758565
0.285462 5.801077
0.288565 5.841181
0.291668 5.878478
0.294770 5.912431
0.297873 5.942321
0.300976 5.967238
0.304079 5.986139
0.307182 5.998000
0.310285 6.002050

0.310285 6.002050
0.313387 5.998000
0.316490 5.986139
0.319593 5.967238
0.322696 5.942321
0.325799 5.912431
0.328902 5.878478
0.332005 5.841181
0.335107 5.801077
0.338210 5.758565
0.341313 5.713961
0.344416 5.667547
0.347519 5.619622
0.350622 5.570526
0.353724 5.520663
0.356827 5.470504
0.359930 5.420570
0.363033 5.371401
0.366136 5.323502
0.369239 5.277290
0.372342 5.233047
0.375444 5.190893
0.378547 5.150818
0.381650 5.112745
0.384753 5.076614
0.387856 5.042460
0.390959 5.010443
0.394062 4.980843
0.397164 4.886854
0.400267 4.790089
0.403370 4.694769
0.406473 4.601362
0.409576 4.510843
0.412679 4.424887
0.415781 4.346042
0.418884 4.277610
0.421987 4.222627
0.425090 4.181891
0.428193 4.152920
0.431296 4.131411
0.434399 4.113328
0.437501 4.095868
0.440604 4.077511
0.443707 4.057781
0.446810 4.036988
0.449913 4.016002
0.453016 3.996056
0.456118 3.978546
0.459221 3.964844
0.462324 3.956105
0.465427 3.953102

0.465427 3.953102
0.468530 3.941456
0.471633 3.906669
0.474735 3.849237
0.477838 3.770089
0.480941 3.670721
0.484044 3.553319
0.487147 3.420837
0.490250 3.277001
0.493353 3.126219
0.496455 2.973388
0.499558 2.859556
0.502661 2.815969
0.505764 2.770926
0.508867 2.724551
0.511970 2.676846
0.515073 2.627703
0.518175 2.576922
0.521278 2.524239
0.524381 2.469365
0.527484 2.412012
0.530587 2.351931
0.533690 2.288930
0.536792 2.222889
0.539895 2.153762
0.542998 2.081572
0.546101 2.006396
0.549204 1.928361
0.552307 1.847626
0.555410 1.764386
0.558512 1.678866
0.561615 1.591331
0.564718 1.502090
0.567821 1.411498
0.570924 1.319956
0.574027 1.227902
0.577129 1.135796
0.580232 1.044100
0.583335 0.953259
0.586438 0.863681
0.589541 0.775713
0.592644 0.689630
0.595746 0.605619
0.598849 0.523770
0.601952 0.444077
0.605055 0.366438
0.608158 0.290656
0.611261 0.216456
0.614364 0.143481
0.617466 0.071253
0.620569 -0.007127


0.000000 -0.007127
0.003103 0.262637
0.006206 0.382590
0.009309 0.496273
0.012411 0.624787
0.015514 0.775335
0.018617 0.946785
0.021720 1.134343
0.024823 1.332748
0.027926 1.537542
0.031029 1.745252
0.034131 1.953210
0.037234 2.159306
0.040337 2.361776
0.043440 2.559031
0.046543 2.749516
0.049646 2.931593
0.052748 3.103426
0.055851 3.262867
0.058954 3.407363
0.062057 3.533893
0.065160 3.639047
0.068263 3.719341
0.071365 3.771937
0.074468 3.795754
0.077571 3.792653
0.080674 3.768038
0.083777 3.730388
0.086880 3.689862
0.089983 3.656569
0.093085 3.639033
0.096188 3.643034
0.099291 3.670979
0.102394 3.721987
0.105497 3.792707
0.108600 3.878512
0.111702 3.974590
0.114805 4.076630
0.117908 4.181102
0.121011 4.285251
0.124114 4.386955
0.127217 4.484556
0.130320 4.576680
0.133422 4.662109
0.136525 4.739676
0.139628 4.808206
0.142731 4.866506
0.145834 4.913398
0.148937 4.947800
0.152039 4.968830
0.155142 4.975908

0.155142 4.975908
0.158245 4.974862
0.161348 4.971759
0.164451 4.966695
0.167554 4.959828
0.170657 4.951380
0.173759 4.941635
0.176862 4.930931
0.179965 4.919663
0.183068 4.908269
0.186171 4.897230
0.189274 4.887050
0.192377 4.878249
0.195479 4.871345
0.198582 4.866834
0.201685 4.865169
0.204788 4.866741
0.207891 4.871861
0.210994 4.880738
0.214096 4.893470
0.217199 4.910035
0.220302 4.930295
0.223405 4.954006
0.226508 4.984922
0.229611 5.084309
0.232713 5.185016
0.235816 5.286881
0.238919 5.389452
0.242022 5.491909
0.245125 5.593057
0.248228 5.691376
0.251331 5.785126
0.254433 5.872487
0.257536 5.951701
0.260639 6.021200
0.263742 6.079714
0.266845 6.126354
0.269948 6.160665
0.273050 6.182659
0.276153 6.192822
0.279256 6.192110
0.282359 6.181909
0.285462 6.163985
0.288565 6.140405
0.291668 6.113439
0.294770 6.085444
0.297873 6.058731
0.300976 6.035434
0.304079 6.017377
0.307182 6.005956
0.310285 6.002050

0.310285 6.002050
0.313387 6.005956
0.316490 6.017377
0.319593 6.035434
0.322696 6.058731
0.325799 6.085444
0.328902 6.113439
0.332005 6.140405
0.335107 6.163985
0.338210 6.181909
0.341313 6.192110
0.344416 6.192822
0.347519 6.182659
0.350622 6.160665
0.353724 6.126354
0.356827 6.079714
0.359930 6.021200
0.363033 5.951701
0.366136 5.872487
0.369239 5.785126
0.372342 5.691376
0.375444 5.593057
0.378547 5.491909
0.381650 5.389452
0.384753 5.286881
0.387856 5.185016
0.390959 5.084309
0.394062 4.984922
0.397164 4.954006
0.400267 4.930295
0.403370 4.910035
0.406473 4.893470
0.409576 4.880738
0.412679 4.871861
0.415781 4.866741
0.418884 4.865169
0.421987 4.866834
0.425090 4.871345
0.428193 4.878249
0.431296 4.887050
0.434399 4.897230
0.437501 4.908269
0.440604 4.919663
0.443707 4.930931
0.446810 4.941635
0.449913 4.951380
0.453016 4.959828
0.456118 4.966695
0.459221 4.971759
0.462324 4.974862
0.465427 4.975908

0.465427 4.975908
0.468530 4.968830
0.471633 4.947800
0.474735 4.913398
0.477838 4.866506
0.480941 4.808206
0.484044 4.739676
0.487147 4.662109
0.490250 4.576680
0.493353 4.484556
0.496455 4.386955
0.499558 4.285251
0.502661 4.181102
0.505764 4.076630
0.508867 3.974590
0.511970 3.878512
0.515073 3.792707
0.518175 3.721987
0.521278 3.670979
0.524381 3.643034
0.527484 3.639033
0.530587 3.656569
0.533690 3.689862
0.536792 3.730388
0.539895 3.768038
0.542998 3.792653
0.546101 3.795754
0.549204 3.771937
0.552307 3.719341
0.555410 3.639047
0.558512 3.533893
0.561615 3.407363
0.564718 3.262867
0.567821 3.103426
0.570924 2.931593
0.574027 2.749516
0.577129 2.559031
0.580232 2.361776
0.583335 2.159306
0.586438 1.953210
0.589541 1.745252
0.592644 1.537542
0.595746 1.332748
0.598849 1.134343
0.601952 0.946785
0.605055 0.775335
0.608158 0.624787
0.611261 0.496273
0.614364 0.382590
0.617466 0.262637
0.620569 -0.007127


0.000000 9.225073
0.003103 9.217989
0.006206 9.196679
0.009309 9.160989
0.012411 9.110728
0.015514 9.045759
0.018617 8.966107
0.021720 8.872081
0.024823 8.764383
0.027926 8.644195
0.031029 8.513240
0.034131 8.373790
0.037234 8.228635
0.040337 8.081012
0.043440 7.934489
0.046543 7.792822
0.049646 7.659786
0.052748 7.538992
0.055851 7.433708
0.058954 7.346687
0.062057 7.280023
0.065160 7.235056
0.068263 7.142206
0.071365 7.033750
0.074468 6.961213
0.077571 6.929532
0.080674 6.940220
0.083777 6.991547
0.086880 7.079527
0.089983 7.199074
0.093085 7.344794
0.096188 7.511300
0.099291 7.693229
0.102394 7.885175
0.105497 8.081696
0.108600 8.251264
0.111702 8.363060
0.114805 8.471647
0.117908 8.576141
0.121011 8.675747
0.124114 8.769737
0.127217 8.857427
0.130320 8.938160
0.133422 9.011297
0.136525 9.076222
0.139628 9.132345
0.142731 9.179119
0.145834 9.216056
0.148937 9.242750
0.152039 9.258894
0.155142 9.264297

0.155142 9.264297
0.158245 9.254548
0.161348 9.226303
0.164451 9.182066
0.167554 9.124872
0.170657 9.057603
0.173759 8.982717
0.176862 8.902192
0.179965 8.817521
0.183068 8.729678
0.186171 8.639056
0.189274 8.545391
0.192377 8.447723
0.195479 8.344501
0.198582 8.233945
0.201685 8.114678
0.204788 7.986421
0.207891 7.850352
0.210994 7.708972
0.214096 7.565666
0.217199 7.424257
0.220302 7.288689
0.223405 7.162822
0.226508 7.050274
0.229611 6.954284
0.232713 6.877554
0.235816 6.822093
0.238919 6.789075
0.242022 6.778756
0.245125 6.790447
0.248228 6.822566
0.251331 6.872708
0.254433 6.937701
0.257536 7.013559
0.260639 7.095314
0.263742 7.176706
0.266845 7.249927
0.269948 7.306141
0.273050 7.337842
0.276153 7.342451
0.279256 7.323375
0.282359 7.287160
0.285462 7.240329
0.288565 7.188156
0.291668 7.134719
0.294770 7.083275
0.297873 7.036584
0.300976 6.997099
0.304079 6.967005
0.307182 6.948116
0.310285 6.941672

0.310285 6.941672
0.313387 6.948116
0.316490 6.967005
0.319593 6.997099
0.322696 7.036584
0.325799 7.083275
0.328902 7.134719
0.332005 7.188156
0.335107 7.240329
0.338210 7.287160
0.341313 7.323375
0.344416 7.342451
0.347519 7.337842
0.350622 7.306141
0.353724 7.249927
0.356827 7.176706
0.359930 7.095314
0.363033 7.013559
0.366136 6.937701
0.369239 6.872708
0.372342 6.822566
0.375444 6.790447
0.378547 6.778756
0.381650 6.789075
0.384753 6.822093
0.387856 6.877554
0.390959 6.954284
0.394062 7.050274
0.397164 7.162822
0.400267 7.288689
0.403370 7.424257
0.406473 7.565666
0.409576 7.708972
0.412679 7.850352
0.415781 7.986421
0.418884 8.114678
0.421987 8.233945
0.425090 8.344501
0.428193 8.447723
0.431296 8.545391
0.434399 8.639056
0.437501 8.729678
0.440604 8.817521
0.443707 8.902192
0.446810 8.982717
0.449913 9.057603
0.453016 9.124872
0.456118 9.182066
0.459221 9.226303
0.462324 9.254548
0.465427 9.264297

0.465427 9.264297
0.468530 9.258894
0.471633 9.242750
0.474735 9.216056
0.477838 9.179119
0.480941 9.132345
0.484044 9.076222
0.487147 9.011297
0.490250 8.938160
0.493353 8.857427
0.496455 8.769737
0.499558 8.675747
0.502661 8.576141
0.505764 8.471647
0.508867 8.363060
0.511970 8.251264
0.515073 8.081696
0.518175 7.885175
0.521278 7.693229
0.524381 7.511300
0.527484 7.344794
0.530587 7.199074
0.533690 7.079527
0.536792 6.991547
0.539895 6.940220
0.542998 6.929532
0.546101 6.961213
0.549204 7.033750
0.552307 7.142206
0.555410 7.235056
0.558512 7.280023
0.561615 7.346687
0.564718 7.433708
0.567821 7.538992
0.570924 7.659786
0.574027 7.792822
0.577129 7.934489
0.580232 8.081012
0.583335 8.228635
0.586438 8.373790
0.589541 8.513240
0.592644 8.644195
0.595746 8.764383
0.598849 8.872081
0.601952 8.966107
0.605055 9.045759
0.608158 9.110728
0.611261 9.160989
0.614364 9.196679
0.617466 9.217989
0.620569 9.225073


0.000000 9.225073
0.003103 9.219750
0.006206 9.204635
0.009309 9.181165
0.012411 9.150139
0.015514 9.111764
0.018617 9.065995
0.021720 9.012679
0.024823 8.951553
0.027926 8.882200
0.031029 8.804006
0.034131 8.716142
0.037234 8.617610
0.040337 8.507365
0.043440 8.384525
0.046543 8.248677
0.049646 8.100237
0.052748 7.940808
0.055851 7.773467
0.058954 7.602925
0.062057 7.435529
0.065160 7.279053
0.068263 7.212327
0.071365 7.211592
0.074468 7.231896
0.077571 7.271689
0.080674 7.328970
0.083777 7.401446
0.086880 7.486672
0.089983 7.582189
0.093085 7.685620
0.096188 7.794746
0.099291 7.907553
0.102394 8.022250
0.105497 8.137272
0.108600 8.277465
0.111702 8.467536
0.114805 8.647653
0.117908 8.814518
0.121011 8.965920
0.124114 9.100724
0.127217 9.218709
0.130320 9.320342
0.133422 9.406518
0.136525 9.478341
0.139628 9.536947
0.142731 9.583388
0.145834 9.618563
0.148937 9.643181
0.152039 9.657750
0.155142 9.662573

0.155142 9.662573
0.158245 9.661241
0.161348 9.656392
0.164451 9.645963
0.167554 9.627642
0.170657 9.599535
0.173759 9.560416
0.176862 9.509753
0.179965 9.447684
0.183068 9.375015
0.186171 9.293253
0.189274 9.204652
0.192377 9.112217
0.195479 9.019590
0.198582 8.893102
0.201685 8.814485
0.204788 8.776908
0.207891 8.715502
0.210994 8.664450
0.214096 8.622596
0.217199 8.588363
0.220302 8.560039
0.223405 8.535939
0.226508 8.514480
0.229611 8.494216
0.232713 8.473862
0.235816 8.452322
0.238919 8.428706
0.242022 8.402363
0.245125 8.372918
0.248228 8.340318
0.251331 8.304912
0.254433 8.267561
0.257536 8.229821
0.260639 8.194231
0.263742 8.164697
0.266845 8.146798
0.269948 8.147314
0.273050 8.171890
0.276153 8.221469
0.279256 8.291252
0.282359 8.373560
0.285462 8.461014
0.288565 8.547772
0.291668 8.629501
0.294770 8.703010
0.297873 8.765938
0.300976 8.816533
0.304079 8.853529
0.307182 8.876062
0.310285 8.883628

0.310285 8.883628
0.313387 8.876062
0.316490 8.853529
0.319593 8.816533
0.322696 8.765938
0.325799 8.703010
0.328902 8.629501
0.332005 8.547772
0.335107 8.461014
0.338210 8.373560
0.341313 8.291252
0.344416 8.221469
0.347519 8.171890
0.350622 8.147314
0.353724 8.146798
0.356827 8.164697
0.359930 8.194231
0.363033 8.229821
0.366136 8.267561
0.369239 8.304912
0.372342 8.340318
0.375444 8.372918
0.378547 8.402363
0.381650 8.428706
0.384753 8.452322
0.387856 8.473862
0.390959 8.494216
0.394062 8.514480
0.397164 8.535939
0.400267 8.560039
0.403370 8.588363
0.406473 8.622596
0.409576 8.664450
0.412679 8.715502
0.415781 8.776908
0.418884 8.814485
0.421987 8.893102
0.425090 9.019590
0.428193 9.112217
0.431296 9.204652
0.434399 9.293253
0.437501 9.375015
0.440604 9.447684
0.443707 9.509753
0.446810 9.560416
0.449913 9.599535
0.453016 9.627642
0.456118 9.645963
0.459221 9.656392
0.462324 9.661241
0.465427 9.662573

0.465427 9.662573
0.468530 9.657750
0.471633 9.643181
0.474735 9.618563
0.477838 9.583388
0.480941 9.536947
0.484044 9.478341
0.487147 9.406518
0.490250 9.320342
0.493353 9.218709
0.496455 9.100724
0.499558 8.965920
0.502661 8.814518
0.505764 8.647653
0.508867 8.467536
0.511970 8.277465
0.515073 8.137272
0.518175 8.022250
0.521278 7.907553
0.524381 7.794746
0.527484 7.685620
0.530587 7.582189
0.533690 7.486672
0.536792 7.401446
0.539895 7.328970
0.542998 7.271689
0.546101 7.231896
0.549204 7.211592
0.552307 7.212327
0.555410 7.279053
0.558512 7.435529
0.561615 7.602925
0.564718 7.773467
0.567821 7.940808
0.570924 8.100237
0.574027 8.248677
0.577129 8.384525
0.580232 8.507365
0.583335 8.617610
0.586438 8.716142
0.589541 8.804006
0.592644 8.882200
0.595746 8.951553
0.598849 9.012679
0.601952 9.065995
0.605055 9.111764
0.608158 9.150139
0.611261 9.181165
0.614364 9.204635
0.617466 9.219750
0.620569 9.225073


0.000000 10.076888
0.003103 10.130680
0.006206 10.286707
0.009309 10.530689
0.012411 10.842144
0.015514 11.195888
0.018617 11.562527
0.021720 11.908526
0.024823 12.197780
0.027926 12.399149
0.031029 12.500220
0.034131 12.513242
0.037234 12.463903
0.040337 12.377379
0.043440 12.272961
0.046543 12.164270
0.049646 12.060679
0.052748 11.968426
0.055851 11.891341
0.058954 11.831367
0.062057 11.789010
0.065160 11.763746
0.068263 11.754389
0.071365 11.759375
0.074468 11.776993
0.077571 11.805524
0.080674 11.843343
0.083777 11.888977
0.086880 11.941139
0.089983 11.998749
0.093085 12.060934
0.096188 12.127013
0.099291 12.196454
0.102394 12.251787
0.105497 12.315234
0.108600 12.394839
0.111702 12.488004
0.114805 12.575000
0.117908 12.650755
0.121011 12.723393
0.124114 12.791417
0.127217 12.853548
0.130320 12.908862
0.133422 12.956841
0.136525 12.997349
0.139628 13.030553
0.142731 13.056815
0.145834 13.076587
0.148937 13.090323
0.152039 13.098399
0.155142 13.101062

0.155142 13.101062
0.158245 12.939586
0.161348 12.629847
0.164451 12.277563
0.167554 11.905796
0.170657 11.524483
0.173759 11.141174
0.176862 10.763114
0.179965 10.397749
0.183068 10.052786
0.186171 9.736041
0.189274 9.455157
0.192377 9.217216
0.195479 9.028309
0.198582 8.930669
0.201685 8.848963
0.204788 8.793342
0.207891 8.828488
0.210994 8.916776
0.214096 9.053357
0.217199 9.232079
0.220302 9.445950
0.223405 9.687612
0.226508 9.949742
0.229611 10.225356
