# distance  frequency (bands are separated by blank lines)
# End points of segments: 
#   0.00000000 0.18205010 0.28715680 0.49737020 
0.000000 -0.155698
0.003641 -0.163238
0.007282 -0.183593
0.010923 -0.212039
0.014564 -0.244247
0.018205 -0.277087
0.021846 -0.308337
0.025487 -0.336306
0.029128 -0.359567
0.032769 -0.376792
0.036410 -0.386618
0.040051 -0.387507
0.043692 -0.377511
0.047333 -0.353809
0.050974 -0.311480
0.054615 -0.239022
0.058256 -0.069630
0.061897 0.245552
0.065538 0.372323
0.069179 0.479987
0.072820 0.579502
0.076461 0.674673
0.080102 0.767288
0.083743 0.858300
0.087384 0.948214
0.091025 1.037246
0.094666 1.125401
0.098307 1.212519
0.101948 1.298312
0.105589 1.382387
0.109230 1.464266
0.112871 1.543399
0.116512 1.619177
0.120153 1.690930
0.123794 1.757941
0.127435 1.819451
0.131076 1.874675
0.134717 1.922829
0.138358 1.963172
0.141999 1.995065
0.145640 2.018046
0.149281 2.031932
0.152922 2.036925
0.156563 2.033714
0.160204 2.023560
0.163845 2.008308
0.167486 1.990322
0.171127 1.972298
0.174768 1.956957
0.178409 1.946666
0.182050 1.943044

0.182050 1.943044
0.184152 1.944538
0.186254 1.949005
0.188357 1.956397
0.190459 1.966637
0.192561 1.979619
0.194663 1.995209
0.196765 2.013252
0.198867 2.033569
0.200969 2.055965
0.203071 2.080228
0.205174 2.106138
0.207276 2.133462
0.209378 2.161965
0.211480 2.191408
0.213582 2.221550
0.215684 2.252154
0.217786 2.282987
0.219888 2.313823
0.221991 2.344443
0.224093 2.374639
0.226195 2.404213
0.228297 2.432982
0.230399 2.460778
0.232501 2.487445
0.234603 2.512848
0.236706 2.536868
0.238808 2.559407
0.240910 2.580384
0.243012 2.599740
0.245114 2.617437
0.247216 2.633458
0.249318 2.647805
0.251421 2.660502
0.253523 2.671591
0.255625 2.681132
0.257727 2.689201
0.259829 2.695889
0.261931 2.701299
0.264033 2.705543
0.266136 2.708744
0.268238 2.711029
0.270340 2.712529
0.272442 2.713378
0.274544 2.713712
0.276646 2.713662
0.278748 2.713361
0.280850 2.712933
0.282953 2.712498
0.285055 2.712167
0.287157 2.712037

0.287157 2.712037
0.291361 2.712702
0.295565 2.714955
0.299770 2.718920
0.303974 2.724339
0.308178 2.730569
0.312382 2.736636
0.316587 2.741317
0.320791 2.743271
0.324995 2.741151
0.329199 2.733717
0.333404 2.719906
0.337608 2.698874
0.341812 2.670000
0.346017 2.632867
0.350221 2.587236
0.354425 2.533013
0.358629 2.470225
0.362834 2.399007
0.367038 2.319597
0.371242 2.232351
0.375447 2.137751
0.379651 2.036424
0.383855 1.929129
0.388059 1.816710
0.392263 1.700033
0.396468 1.579917
0.400672 1.457112
0.404876 1.332288
0.409081 1.206032
0.413285 1.078819
0.417489 0.950941
0.421693 0.822399
0.425898 0.692679
0.430102 0.560234
0.434306 0.420945
0.438511 0.260889
0.442715 -0.124925
0.446919 -0.275991
0.451123 -0.340932
0.455327 -0.372299
0.459532 -0.382438
0.463736 -0.377181
0.467940 -0.360168
0.472145 -0.334143
0.476349 -0.301518
0.480553 -0.264763
0.484757 -0.226831
0.488962 -0.191803
0.493166 -0.165667
0.497370 -0.155698


0.000000 -0.012570
0.003641 0.177675
0.007282 0.355827
0.010923 0.533456
0.014564 0.710461
0.018205 0.886621
0.021846 1.061654
0.025487 1.235205
0.029128 1.406824
0.032769 1.575935
0.036410 1.741792
0.040051 1.903434
0.043692 2.059632
0.047333 2.208833
0.050974 2.349120
0.054615 2.478187
0.058256 2.593372
0.061897 2.691757
0.065538 2.770390
0.069179 2.826608
0.072820 2.858461
0.076461 2.865123
0.080102 2.847191
0.083743 2.806737
0.087384 2.747127
0.091025 2.672653
0.094666 2.588116
0.098307 2.498449
0.101948 2.408438
0.105589 2.322512
0.109230 2.244590
0.112871 2.177948
0.116512 2.125090
0.120153 2.087629
0.123794 2.066221
0.127435 2.060572
0.131076 2.069533
0.134717 2.091276
0.138358 2.123522
0.141999 2.163756
0.145640 2.209428
0.149281 2.258085
0.152922 2.307470
0.156563 2.355568
0.160204 2.400628
0.163845 2.441164
0.167486 2.475948
0.171127 2.503995
0.174768 2.524555
0.178409 2.537100
0.182050 2.541316

0.182050 2.541316
0.184152 2.547237
0.186254 2.564876
0.188357 2.593868
0.190459 2.633637
0.192561 2.683427
0.194663 2.742347
0.196765 2.809420
0.198867 2.883619
0.200969 2.963907
0.203071 3.049260
0.205174 3.138693
0.207276 3.231272
0.209378 3.326119
0.211480 3.422420
0.213582 3.519423
0.215684 3.616440
0.217786 3.712839
0.219888 3.808048
0.221991 3.901545
0.224093 3.992858
0.226195 4.081562
0.228297 4.167273
0.230399 4.249649
0.232501 4.328386
0.234603 4.403219
0.236706 4.473916
0.238808 4.540283
0.240910 4.602161
0.243012 4.659425
0.245114 4.711990
0.247216 4.759804
0.249318 4.802859
0.251421 4.841182
0.253523 4.874843
0.255625 4.903954
0.257727 4.928668
0.259829 4.949183
0.261931 4.965734
0.264033 4.978601
0.266136 4.988096
0.268238 4.994569
0.270340 4.998398
0.272442 4.999985
0.274544 4.995130
0.276646 4.988934
0.278748 4.984921
0.280850 4.982785
0.282953 4.982196
0.285055 4.982802
0.287157 4.984231

0.287157 4.984231
0.291361 4.983313
0.295565 4.988852
0.299770 4.988111
0.303974 4.978274
0.308178 4.958195
0.312382 4.925717
0.316587 4.879284
0.320791 4.817983
0.324995 4.741521
0.329199 4.650150
0.333404 4.544572
0.337608 4.425845
0.341812 4.295325
0.346017 4.154638
0.350221 4.005691
0.354425 3.850699
0.358629 3.692226
0.362834 3.533229
0.367038 3.377072
0.371242 3.227512
0.375447 3.088613
0.379651 2.964565
0.383855 2.859385
0.388059 2.776477
0.392263 2.718072
0.396468 2.684619
0.400672 2.674263
0.404876 2.682610
0.409081 2.702909
0.413285 2.726686
0.417489 2.744759
0.421693 2.748483
0.425898 2.730991
0.430102 2.688079
0.434306 2.618463
0.438511 2.523344
0.442715 2.405554
0.446919 2.268643
0.451123 2.116186
0.455327 1.951368
0.459532 1.776825
0.463736 1.594642
0.467940 1.406426
0.472145 1.213416
0.476349 1.016581
0.480553 0.816712
0.484757 0.614484
0.488962 0.410496
0.493166 0.205240
0.497370 -0.012570


0.000000 -0.012499
0.003641 0.301567
0.007282 0.602026
0.010923 0.899369
0.014564 1.192069
0.018205 1.478469
0.021846 1.756804
0.025487 2.025220
0.029128 2.281800
0.032769 2.524635
0.036410 2.751939
0.040051 2.962211
0.043692 3.154450
0.047333 3.328368
0.050974 3.484580
0.054615 3.624682
0.058256 3.751193
0.061897 3.867322
0.065538 3.976621
0.069179 4.082577
0.072820 4.188251
0.076461 4.296009
0.080102 4.407389
0.083743 4.523099
0.087384 4.643100
0.091025 4.766765
0.094666 4.893037
0.098307 5.020596
0.101948 5.147994
0.105589 5.273753
0.109230 5.396441
0.112871 5.514710
0.116512 5.627312
0.120153 5.733095
0.123794 5.830985
0.127435 5.919960
0.131076 5.999016
0.134717 6.067158
0.138358 6.123415
0.141999 6.166908
0.145640 6.197017
0.149281 6.213611
0.152922 6.217330
0.156563 6.209778
0.160204 6.193516
0.163845 6.171808
0.167486 6.148183
0.171127 6.125990
0.174768 6.108046
0.178409 6.096437
0.182050 6.092426

0.182050 6.092426
0.184152 6.093789
0.186254 6.097781
0.188357 6.104117
0.190459 6.112330
0.192561 6.121786
0.194663 6.131714
0.196765 6.141231
0.198867 6.149392
0.200969 6.155239
0.203071 6.157859
0.205174 6.156444
0.207276 6.150338
0.209378 6.139078
0.211480 6.122409
0.213582 6.100278
0.215684 6.072822
0.217786 6.040329
0.219888 6.003209
0.221991 5.961956
0.224093 5.917117
0.226195 5.869274
0.228297 5.819016
0.230399 5.766933
0.232501 5.713601
0.234603 5.659579
0.236706 5.605401
0.238808 5.551573
0.240910 5.498571
0.243012 5.446836
0.245114 5.396773
0.247216 5.348747
0.249318 5.303083
0.251421 5.260061
0.253523 5.219917
0.255625 5.182840
0.257727 5.148971
0.259829 5.118405
0.261931 5.091188
0.264033 5.067321
0.266136 5.046757
0.268238 5.029408
0.270340 5.015141
0.272442 5.003784
0.274544 4.999752
0.276646 4.998130
0.278748 4.995557
0.280850 4.992466
0.282953 4.989282
0.285055 4.986410
0.287157 4.984231

0.287157 4.984231
0.291361 4.988008
0.295565 4.990357
0.299770 5.002445
0.303974 5.024896
0.308178 5.056220
0.312382 5.095703
0.316587 5.142027
0.320791 5.193411
0.324995 5.247764
0.329199 5.302831
0.333404 5.356320
0.337608 5.406002
0.341812 5.449788
0.346017 5.485784
0.350221 5.512330
0.354425 5.528028
0.358629 5.531755
0.362834 5.522680
0.367038 5.500279
0.371242 5.464340
0.375447 5.414981
0.379651 5.352654
0.383855 5.278153
0.388059 5.192609
0.392263 5.097470
0.396468 4.994460
0.400672 4.885500
0.404876 4.772586
0.409081 4.657610
0.413285 4.542129
0.417489 4.427090
0.421693 4.312543
0.425898 4.197405
0.430102 4.079354
0.434306 3.954923
0.438511 3.819846
0.442715 3.669630
0.446919 3.500236
0.451123 3.308691
0.455327 3.093466
0.459532 2.854527
0.463736 2.593123
0.467940 2.311408
0.472145 2.012058
0.476349 1.697939
0.480553 1.371897
0.484757 1.036629
0.488962 0.694643
0.493166 0.348225
0.497370 -0.012499


0.000000 10.423732
0.003641 10.411997
0.007282 10.376958
0.010923 10.319114
0.014564 10.239296
0.018205 10.138662
0.021846 10.018700
0.025487 9.881223
0.029128 9.728368
0.032769 9.562603
0.036410 9.386723
0.040051 9.203860
0.043692 9.017489
0.047333 8.831432
0.050974 8.649853
0.054615 8.477225
0.058256 8.318261
0.061897 8.177763
0.065538 8.060385
0.069179 7.970277
0.072820 7.910667
0.076461 7.883450
0.080102 7.888925
0.083743 7.925765
0.087384 7.991250
0.091025 8.081676
0.094666 8.192821
0.098307 8.320344
0.101948 8.460081
0.105589 8.608219
0.109230 8.761385
0.112871 8.916669
0.116512 9.071612
0.120153 9.036967
0.123794 8.914634
0.127435 8.790097
0.131076 8.665302
0.134717 8.542593
0.138358 8.424649
0.141999 8.314343
0.145640 8.214498
0.149281 8.127545
0.152922 8.055128
0.156563 7.997784
0.160204 7.954838
0.163845 7.924572
0.167486 7.904614
0.171127 7.892398
0.174768 7.885562
0.178409 7.882249
0.182050 7.881279

0.182050 7.881279
0.184152 7.881785
0.186254 7.883365
0.188357 7.886205
0.190459 7.890609
0.192561 7.896986
0.194663 7.905838
0.196765 7.917729
0.198867 7.933257
0.200969 7.953007
0.203071 7.977506
0.205174 8.007172
0.207276 8.042275
0.209378 8.082906
0.211480 8.128970
0.213582 8.180196
0.215684 8.236159
0.217786 8.296316
0.219888 8.360046
0.221991 8.426686
0.224093 8.495562
0.226195 8.566013
0.228297 8.637411
0.230399 8.709171
0.232501 8.780762
0.234603 8.851707
0.236706 8.921586
0.238808 8.990036
0.240910 9.056750
0.243012 9.121474
0.245114 9.184001
0.247216 9.244174
0.249318 9.301875
0.251421 9.357028
0.253523 9.409586
0.255625 9.459534
0.257727 9.506880
0.259829 9.551647
0.261931 9.593869
0.264033 9.633582
0.266136 9.670813
0.268238 9.705574
0.270340 9.737843
0.272442 9.767553
0.274544 9.794576
0.276646 9.818701
0.278748 9.839620
0.280850 9.856911
0.282953 9.870038
0.285055 9.878379
0.287157 9.881291

0.287157 9.881291
0.291361 9.868903
0.295565 9.832386
0.299770 9.777880
0.303974 9.715554
0.308178 9.654958
0.312382 9.602744
0.316587 9.562573
0.320791 9.535692
0.324995 9.521529
0.329199 9.518178
0.333404 9.522794
0.337608 9.531921
0.341812 9.541741
0.346017 9.548288
0.350221 9.547603
0.354425 9.535887
0.358629 9.509662
0.362834 9.465967
0.367038 9.402595
0.371242 9.318338
0.375447 9.213193
0.379651 9.088471
0.383855 8.946790
0.388059 8.791982
0.392263 8.628972
0.396468 8.463648
0.400672 8.302764
0.404876 8.153817
0.409081 8.024836
0.413285 7.924006
0.417489 7.859019
0.421693 7.836175
0.425898 7.859387
0.430102 7.929435
0.434306 8.043776
0.438511 8.197011
0.442715 8.381777
0.446919 8.589707
0.451123 8.812216
0.455327 9.041018
0.459532 9.268437
0.463736 9.487583
0.467940 9.692458
0.472145 9.878040
0.476349 10.040311
0.480553 10.176240
0.484757 10.283689
0.488962 10.361250
0.493166 10.408078
0.497370 10.423732


0.000000 10.423732
0.003641 10.417550
0.007282 10.399248
0.010923 10.369559
0.014564 10.329738
0.018205 10.281597
0.021846 10.227535
0.025487 10.170547
0.029128 10.114184
0.032769 10.062436
0.036410 10.019515
0.040051 9.989505
0.043692 9.975878
0.047333 9.980840
0.050974 10.004451
0.054615 10.043442
0.058256 10.089790
0.061897 10.130350
0.065538 10.151157
0.069179 10.146127
0.072820 10.118949
0.076461 10.076385
0.080102 10.023547
0.083743 9.963313
0.087384 9.897021
0.091025 9.825129
0.094666 9.747631
0.098307 9.664314
0.101948 9.574924
0.105589 9.479274
0.109230 9.377330
0.112871 9.269274
0.116512 9.155560
0.120153 9.224173
0.123794 9.372690
0.127435 9.515834
0.131076 9.652566
0.134717 9.782087
0.138358 9.903801
0.141999 10.017263
0.145640 10.122145
0.149281 10.218190
0.152922 10.305180
0.156563 10.382904
0.160204 10.451134
0.163845 10.509612
0.167486 10.558053
0.171127 10.596154
0.174768 10.623624
0.178409 10.640217
0.182050 10.645767

0.182050 10.645767
0.184152 10.645405
0.186254 10.644331
0.188357 10.642583
0.190459 10.640214
0.192561 10.637296
0.194663 10.633903
0.196765 10.630108
0.198867 10.625978
0.200969 10.621568
0.203071 10.616917
0.205174 10.612048
0.207276 10.606972
0.209378 10.601682
0.211480 10.596166
0.213582 10.590402
0.215684 10.584367
0.217786 10.578037
0.219888 10.571398
0.221991 10.564442
0.224093 10.557174
0.226195 10.549616
0.228297 10.541809
0.230399 10.533814
0.232501 10.525714
0.234603 10.517615
0.236706 10.509645
0.238808 10.501957
0.240910 10.494721
0.243012 10.488127
0.245114 10.482382
0.247216 10.477705
0.249318 10.474320
0.251421 10.472460
0.253523 10.472354
0.255625 10.474228
0.257727 10.478297
0.259829 10.484761
0.261931 10.493805
0.264033 10.505590
0.266136 10.520256
0.268238 10.537914
0.270340 10.558649
0.272442 10.582518
0.274544 10.609552
0.276646 10.639753
0.278748 10.673097
0.280850 10.709536
0.282953 10.748998
0.285055 10.791391
0.287157 10.836604

0.287157 10.836604
0.291361 10.762174
0.295565 10.726862
0.299770 10.727381
0.303974 10.755452
0.308178 10.802253
0.312382 10.860557
0.316587 10.924767
0.320791 10.990396
0.324995 11.053663
0.329199 11.111301
0.333404 11.160543
0.337608 11.199190
0.341812 11.225718
0.346017 11.239367
0.350221 11.240175
0.354425 11.228945
0.358629 11.207127
0.362834 11.176625
0.367038 11.139550
0.371242 11.097956
0.375447 11.053639
0.379651 11.008034
0.383855 10.962241
0.388059 10.917141
0.392263 10.873548
0.396468 10.832339
0.400672 10.794538
0.404876 10.761339
0.409081 10.734085
0.413285 10.714215
0.417489 10.703179
0.421693 10.702352
0.425898 10.712940
0.430102 10.735892
0.434306 10.560179
0.438511 10.388705
0.442715 10.252281
0.446919 10.152947
0.451123 10.090528
0.455327 10.062590
0.459532 10.064719
0.463736 10.091043
0.467940 10.134866
0.472145 10.189278
0.476349 10.247657
0.480553 10.304029
0.484757 10.353308
0.488962 10.391447
0.493166 10.415513
0.497370 10.423732


0.000000 11.991010
0.003641 11.980447
0.007282 11.949399
0.010923 11.899663
0.014564 11.833887
0.018205 11.755198
0.021846 11.666855
0.025487 11.572008
0.029128 11.473551
0.032769 11.374067
0.036410 11.275859
0.040051 11.181038
0.043692 11.091714
0.047333 11.010305
0.050974 10.940081
0.054615 10.886090
0.058256 10.856457
0.061897 10.862789
0.065538 10.916036
0.069179 11.018074
0.072820 11.160097
0.076461 11.329620
0.080102 11.515449
0.083743 11.708497
0.087384 11.901292
0.091025 12.087544
0.094666 12.261966
0.098307 12.420261
0.101948 12.559199
0.105589 12.676676
0.109230 12.771713
0.112871 12.844353
0.116512 12.895481
0.120153 12.926597
0.123794 12.939597
0.127435 12.936591
0.131076 12.919773
0.134717 12.891342
0.138358 12.853456
0.141999 12.808222
0.145640 12.757694
0.149281 12.703883
0.152922 12.648757
0.156563 12.594246
0.160204 12.542231
0.163845 12.494515
0.167486 12.452786
0.171127 12.418562
0.174768 12.393124
0.178409 12.377450
0.182050 12.372156

0.182050 12.372156
0.184152 12.375983
0.186254 12.387415
0.188357 12.406309
0.190459 12.432433
0.192561 12.465478
0.194663 12.505063
0.196765 12.550752
0.198867 12.602066
0.200969 12.658491
0.203071 12.719490
0.205174 12.784511
0.207276 12.852994
0.209378 12.924380
0.211480 12.947787
0.213582 12.931069
0.215684 12.912021
0.217786 12.890476
0.219888 12.866274
0.221991 12.839266
0.224093 12.809314
0.226195 12.776296
0.228297 12.740108
0.230399 12.700661
0.232501 12.657891
0.234603 12.611753
0.236706 12.562226
0.238808 12.509313
0.240910 12.453044
0.243012 12.393474
0.245114 12.330686
0.247216 12.264793
0.249318 12.195933
0.251421 12.124278
0.253523 12.050030
0.255625 11.973421
0.257727 11.894719
0.259829 11.814228
0.261931 11.732287
0.264033 11.649280
0.266136 11.565636
0.268238 11.481833
0.270340 11.398410
0.272442 11.315975
0.274544 11.235213
0.276646 11.156903
0.278748 11.081927
0.280850 11.011279
0.282953 10.946060
0.285055 10.887443
0.287157 10.836605

0.287157 10.836605
0.291361 10.934958
0.295565 11.042852
0.299770 11.158888
0.303974 11.281525
0.308178 11.409130
0.312382 11.540017
0.316587 11.672497
0.320791 11.804915
0.324995 11.935697
0.329199 12.063384
0.333404 12.186673
0.337608 12.304430
0.341812 12.415714
0.346017 12.519761
0.350221 12.615967
0.354425 12.703830
0.358629 12.782870
0.362834 12.852486
0.367038 12.911746
0.371242 12.959052
0.375447 12.991609
0.379651 13.004674
0.383855 12.990741
0.388059 12.939692
0.392263 12.841868
0.396468 12.693846
0.400672 12.501089
0.404876 12.274356
0.409081 12.025103
0.413285 11.763573
0.417489 11.498749
0.421693 11.238738
0.425898 10.991069
0.430102 10.762761
0.434306 10.771832
0.438511 10.821004
0.442715 10.883237
0.446919 10.957938
0.451123 11.044085
0.455327 11.140235
0.459532 11.244513
0.463736 11.354582
0.467940 11.467587
0.472145 11.580083
0.476349 11.687994
0.480553 11.786649
0.484757 11.870977
0.488962 11.935900
0.493166 11.976951
0.497370 11.991010


0.000000 14.268788
0.003641 14.268470
0.007282 14.267517
0.010923 14.265938
0.014564 14.263743
0.018205 14.260946
0.021846 14.257565
0.025487 14.253615
0.029128 14.249113
0.032769 14.244070
0.036410 14.238488
0.040051 14.232365
0.043692 14.225680
0.047333 14.218401
0.050974 14.210477
0.054615 14.201837
0.058256 14.192389
0.061897 14.182023
0.065538 14.170605
0.069179 14.157984
0.072820 14.143991
0.076461 14.128446
0.080102 14.111159
0.083743 14.091933
0.087384 14.070575
0.091025 14.046896
0.094666 14.020720
0.098307 13.991891
0.101948 13.960276
0.105589 13.925775
0.109230 13.888329
0.112871 13.847925
0.116512 13.804604
0.120153 13.758468
0.123794 13.709691
0.127435 13.658520
0.131076 13.605288
0.134717 13.550414
0.138358 13.494412
0.141999 13.437889
0.145640 13.381550
0.149281 13.326192
0.152922 13.272698
0.156563 13.222026
0.160204 13.175186
0.163845 13.133214
0.167486 13.097132
0.171127 13.067897
0.174768 13.046348
0.178409 13.033138
0.182050 13.028687

0.182050 13.028687
0.184152 13.028433
0.186254 13.027663
0.188357 13.026343
0.190459 13.024420
0.192561 13.021821
0.194663 13.018454
0.196765 13.014207
0.198867 13.008956
0.200969 13.002560
0.203071 12.994867
0.205174 12.985715
0.207276 12.974934
0.209378 12.962350
0.211480 12.998111
0.213582 13.073644
0.215684 13.150446
0.217786 13.228004
0.219888 13.305830
0.221991 13.383460
0.224093 13.460461
0.226195 13.536435
0.228297 13.611020
0.230399 13.683892
0.232501 13.754769
0.234603 13.823410
0.236706 13.889618
0.238808 13.953237
0.240910 14.014155
0.243012 14.072298
0.245114 14.127632
0.247216 14.180156
0.249318 14.229902
0.251421 14.276932
0.253523 14.321330
0.255625 14.363201
0.257727 14.402669
0.259829 14.439869
0.261931 14.474946
0.264033 14.508050
0.266136 14.539336
0.268238 14.568959
0.270340 14.597070
0.272442 14.623820
0.274544 14.649350
0.276646 14.673795
0.278748 14.697283
0.280850 14.719929
0.282953 14.741839
0.285055 14.763107
0.287157 14.783813

0.287157 14.783813
0.291361 14.744386
0.295565 14.708444
0.299770 14.676835
0.303974 14.650437
0.308178 14.630144
0.312382 14.616844
0.316587 14.611378
0.320791 14.614497
0.324995 14.626789
0.329199 14.648602
0.333404 14.679952
0.337608 14.720449
0.341812 14.769245
0.346017 14.825035
0.350221 14.886113
0.354425 14.931748
0.358629 14.862187
0.362834 14.778044
0.367038 14.679603
0.371242 14.568045
0.375447 14.446015
0.379651 14.318459
0.383855 14.193527
0.388059 14.082524
0.392263 13.996921
0.396468 13.942609
0.400672 13.917246
0.404876 13.913805
0.409081 13.925120
0.413285 13.945722
0.417489 13.971830
0.421693 14.000869
0.425898 14.031061
0.430102 14.061146
0.434306 14.090219
0.438511 14.117631
0.442715 14.142928
0.446919 14.165815
0.451123 14.186126
0.455327 14.203808
0.459532 14.218899
0.463736 14.231516
0.467940 14.241834
0.472145 14.250071
0.476349 14.256471
0.480553 14.261281
0.484757 14.264737
0.488962 14.267043
0.493166 14.268360
0.497370 14.268788


0.000000 14.268788
0.003641 14.274710
0.007282 14.292054
