# distance  frequency (bands are separated by blank lines)
# End points of segments: 
#   0.00000000 0.16811150 0.33622310 0.50433460 0.67244610 
0.000000 -1.268494
0.003362 -1.262245
0.006724 -1.243291
0.010087 -1.210982
0.013449 -1.164125
0.016811 -1.100778
0.020173 -1.017807
0.023536 -0.909884
0.026898 -0.766750
0.030260 -0.562736
0.033622 -0.123601
0.036984 0.561165
0.040347 0.820089
0.043709 1.028011
0.047071 1.211477
0.050433 1.380535
0.053796 1.540249
0.057158 1.693448
0.060520 1.841730
0.063882 1.985962
0.067245 2.126587
0.070607 2.263808
0.073969 2.397714
0.077331 2.528362
0.080694 2.655813
0.084056 2.780166
0.087418 2.901559
0.090780 3.020170
0.094143 3.136209
0.097505 3.249906
0.100867 3.361490
0.104229 3.468329
0.107591 3.571626
0.110954 3.673946
0.114316 3.775680
0.117678 3.877181
0.121040 3.978763
0.124402 4.080703
0.127765 4.183225
0.131127 4.286498
0.134489 4.381200
0.137851 4.469281
0.141214 4.552480
0.144576 4.629783
0.147938 4.700086
0.151300 4.762232
0.154663 4.815062
0.158025 4.857486
0.161387 4.888549
0.164749 4.907505
0.168111 4.913878

0.168111 4.913878
0.171474 4.921824
0.174836 4.945286
0.178198 4.983107
0.181561 5.033263
0.184923 5.092702
0.188285 5.157174
0.191647 5.221350
0.195009 5.279817
0.198372 5.328733
0.201734 5.366582
0.205096 5.395392
0.208458 5.419245
0.211820 5.440305
0.215183 5.459475
0.218545 5.477287
0.221907 5.494176
0.225270 5.510567
0.228632 5.526902
0.231994 5.543638
0.235356 5.561236
0.238718 5.580143
0.242081 5.600773
0.245443 5.623492
0.248805 5.648604
0.252167 5.676367
0.255530 5.707013
0.258892 5.740807
0.262254 5.778131
0.265616 5.819593
0.268978 5.866128
0.272341 5.919061
0.275703 5.980048
0.279065 6.050855
0.282427 6.132975
0.285790 6.227188
0.289152 6.333174
0.292514 6.449340
0.295876 6.572899
0.299239 6.700177
0.302601 6.827018
0.305963 6.949035
0.309325 7.061207
0.312687 7.158329
0.316050 7.238976
0.319412 7.303203
0.322774 7.348718
0.326136 7.385041
0.329499 7.411492
0.332861 7.427569
0.336223 7.432963

0.336223 7.432963
0.339585 7.427569
0.342948 7.411492
0.346310 7.385041
0.349672 7.348718
0.353034 7.303203
0.356396 7.238976
0.359759 7.158329
0.363121 7.061207
0.366483 6.949035
0.369845 6.827018
0.373208 6.700177
0.376570 6.572899
0.379932 6.449340
0.383294 6.333174
0.386657 6.227188
0.390019 6.132975
0.393381 6.050855
0.396743 5.980048
0.400105 5.919061
0.403468 5.866128
0.406830 5.819593
0.410192 5.778131
0.413554 5.740807
0.416917 5.707013
0.420279 5.676367
0.423641 5.648604
0.427003 5.623492
0.430366 5.600773
0.433728 5.580143
0.437090 5.561236
0.440452 5.543638
0.443814 5.526902
0.447177 5.510567
0.450539 5.494176
0.453901 5.477287
0.457263 5.459475
0.460626 5.440305
0.463988 5.419245
0.467350 5.395392
0.470712 5.366582
0.474075 5.328733
0.477437 5.279817
0.480799 5.221350
0.484161 5.157174
0.487523 5.092702
0.490886 5.033263
0.494248 4.983107
0.497610 4.945286
0.500972 4.921824
0.504335 4.913878

0.504335 4.913878
0.507697 4.907505
0.511059 4.888549
0.514421 4.857486
0.517783 4.815062
0.521146 4.762232
0.524508 4.700086
0.527870 4.629783
0.531232 4.552480
0.534595 4.469281
0.537957 4.381200
0.541319 4.286498
0.544681 4.183225
0.548044 4.080703
0.551406 3.978763
0.554768 3.877181
0.558130 3.775680
0.561492 3.673946
0.564855 3.571626
0.568217 3.468329
0.571579 3.361490
0.574941 3.249906
0.578304 3.136209
0.581666 3.020170
0.585028 2.901559
0.588390 2.780166
0.591753 2.655813
0.595115 2.528362
0.598477 2.397714
0.601839 2.263808
0.605201 2.126587
0.608564 1.985962
0.611926 1.841730
0.615288 1.693448
0.618650 1.540249
0.622013 1.380535
0.625375 1.211477
0.628737 1.028011
0.632099 0.820089
0.635462 0.561165
0.638824 -0.123601
0.642186 -0.562736
0.645548 -0.766750
0.648910 -0.909884
0.652273 -1.017807
0.655635 -1.100778
0.658997 -1.164125
0.662359 -1.210982
0.665722 -1.243291
0.669084 -1.262245
0.672446 -1.268494


0.000000 -1.268494
0.003362 -1.243931
0.006724 -1.167343
0.010087 -1.028116
0.013449 -0.798173
0.016811 -0.367438
0.020173 0.518996
0.023536 0.662952
0.026898 0.773059
0.030260 0.889298
0.033622 1.011734
0.036984 1.140185
0.040347 1.274111
0.043709 1.412562
0.047071 1.552046
0.050433 1.669722
0.053796 1.786101
0.057158 1.901100
0.060520 2.015020
0.063882 2.128484
0.067245 2.242091
0.070607 2.356152
0.073969 2.470656
0.077331 2.585368
0.080694 2.699937
0.084056 2.813964
0.087418 2.927050
0.090780 3.038822
0.094143 3.148964
0.097505 3.257257
0.100867 3.363654
0.104229 3.471183
0.107591 3.579172
0.110954 3.685598
0.114316 3.790540
0.117678 3.893992
0.121040 3.995855
0.124402 4.095913
0.127765 4.193830
0.131127 4.289131
0.134489 4.390616
0.137851 4.495588
0.141214 4.601309
0.144576 4.707523
0.147938 4.813752
0.151300 4.895385
0.154663 4.948679
0.158025 4.991655
0.161387 5.023226
0.164749 5.042537
0.168111 5.049037

0.168111 5.049037
0.171474 5.056070
0.174836 5.076593
0.178198 5.108836
0.181561 5.149749
0.184923 5.195137
0.188285 5.240447
0.191647 5.282278
0.195009 5.319481
0.198372 5.352986
0.201734 5.384894
0.205096 5.415510
0.208458 5.443183
0.211820 5.467666
0.215183 5.489490
0.218545 5.509266
0.221907 5.527570
0.225270 5.544951
0.228632 5.561947
0.231994 5.579095
0.235356 5.596919
0.238718 5.615917
0.242081 5.636546
0.245443 5.659205
0.248805 5.684232
0.252167 5.711915
0.255530 5.742527
0.258892 5.776382
0.262254 5.813924
0.265616 5.855823
0.268978 5.903045
0.272341 5.956864
0.275703 6.018763
0.279065 6.090223
0.282427 6.172408
0.285790 6.265821
0.289152 6.370011
0.292514 6.483414
0.295876 6.603370
0.299239 6.726331
0.302601 6.848264
0.305963 6.965328
0.309325 7.075143
0.312687 7.177021
0.316050 7.249338
0.319412 7.303765
0.322774 7.353629
0.326136 7.389968
0.329499 7.414408
0.332861 7.428411
0.336223 7.432963

0.336223 7.432963
0.339585 7.428411
0.342948 7.414408
0.346310 7.389968
0.349672 7.353629
0.353034 7.303765
0.356396 7.249338
0.359759 7.177021
0.363121 7.075143
0.366483 6.965328
0.369845 6.848264
0.373208 6.726331
0.376570 6.603370
0.379932 6.483414
0.383294 6.370011
0.386657 6.265821
0.390019 6.172408
0.393381 6.090223
0.396743 6.018763
0.400105 5.956864
0.403468 5.903045
0.406830 5.855823
0.410192 5.813924
0.413554 5.776382
0.416917 5.742527
0.420279 5.711915
0.423641 5.684232
0.427003 5.659205
0.430366 5.636546
0.433728 5.615917
0.437090 5.596919
0.440452 5.579095
0.443814 5.561947
0.447177 5.544951
0.450539 5.527570
0.453901 5.509266
0.457263 5.489490
0.460626 5.467666
0.463988 5.443183
0.467350 5.415510
0.470712 5.384894
0.474075 5.352986
0.477437 5.319481
0.480799 5.282278
0.484161 5.240447
0.487523 5.195137
0.490886 5.149749
0.494248 5.108836
0.497610 5.076593
0.500972 5.056070
0.504335 5.049037

0.504335 5.049037
0.507697 5.042537
0.511059 5.023226
0.514421 4.991655
0.517783 4.948679
0.521146 4.895385
0.524508 4.813752
0.527870 4.707523
0.531232 4.601309
0.534595 4.495588
0.537957 4.390616
0.541319 4.289131
0.544681 4.193830
0.548044 4.095913
0.551406 3.995855
0.554768 3.893992
0.558130 3.790540
0.561492 3.685598
0.564855 3.579172
0.568217 3.471183
0.571579 3.363654
0.574941 3.257257
0.578304 3.148964
0.581666 3.038822
0.585028 2.927050
0.588390 2.813964
0.591753 2.699937
0.595115 2.585368
0.598477 2.470656
0.601839 2.356152
0.605201 2.242091
0.608564 2.128484
0.611926 2.015020
0.615288 1.901100
0.618650 1.786101
0.622013 1.669722
0.625375 1.552046
0.628737 1.412562
0.632099 1.274111
0.635462 1.140185
0.638824 1.011734
0.642186 0.889298
0.645548 0.773059
0.648910 0.662952
0.652273 0.518996
0.655635 -0.367438
0.658997 -0.798173
0.662359 -1.028116
0.665722 -1.167343
0.669084 -1.243931
0.672446 -1.268494


0.000000 -0.011686
0.003362 0.104321
0.006724 0.196900
0.010087 0.278671
0.013449 0.366760
0.016811 0.460110
0.020173 0.558741
0.023536 0.700190
0.026898 0.831354
0.030260 0.953995
0.033622 1.074494
0.036984 1.194407
0.040347 1.314068
0.043709 1.433377
0.047071 1.554221
0.050433 1.697578
0.053796 1.841160
0.057158 1.972850
0.060520 2.077871
0.063882 2.186218
0.067245 2.296451
0.070607 2.407478
0.073969 2.518577
0.077331 2.629299
0.080694 2.739369
0.084056 2.848626
0.087418 2.956990
0.090780 3.064454
0.094143 3.171075
0.097505 3.276935
0.100867 3.382083
0.104229 3.486478
0.107591 3.590040
0.110954 3.692738
0.114316 3.794644
0.117678 3.895929
0.121040 3.996829
0.124402 4.097613
0.127765 4.198555
0.131127 4.299904
0.134489 4.401863
0.137851 4.504575
0.141214 4.608115
0.144576 4.712521
0.147938 4.817840
0.151300 4.919474
0.154663 5.024493
0.158025 5.128585
0.161387 5.231252
0.164749 5.331649
0.168111 5.413854

0.168111 5.413854
0.171474 5.417378
0.174836 5.428118
0.178198 5.446314
0.181561 5.471037
0.184923 5.501631
0.188285 5.541186
0.191647 5.585017
0.195009 5.622932
0.198372 5.662170
0.201734 5.701748
0.205096 5.740765
0.208458 5.778428
0.211820 5.814090
0.215183 5.847264
0.218545 5.877639
0.221907 5.905093
0.225270 5.929688
0.228632 5.951674
0.231994 5.971468
0.235356 5.989646
0.238718 6.006917
0.242081 6.024096
0.245443 6.042067
0.248805 6.061751
0.252167 6.084063
0.255530 6.109870
0.258892 6.139951
0.262254 6.174966
0.265616 6.215423
0.268978 6.261652
0.272341 6.313791
0.275703 6.371770
0.279065 6.435304
0.282427 6.503894
0.285790 6.576841
0.289152 6.653267
0.292514 6.732139
0.295876 6.812306
0.299239 6.892531
0.302601 6.971521
0.305963 7.047970
0.309325 7.120581
0.312687 7.188099
0.316050 7.268375
0.319412 7.346554
0.322774 7.410370
0.326136 7.459507
0.329499 7.494138
0.332861 7.514662
0.336223 7.521453

0.336223 7.521453
0.339585 7.514662
0.342948 7.494138
0.346310 7.459507
0.349672 7.410370
0.353034 7.346554
0.356396 7.268375
0.359759 7.188099
0.363121 7.120581
0.366483 7.047970
0.369845 6.971521
0.373208 6.892531
0.376570 6.812306
0.379932 6.732139
0.383294 6.653267
0.386657 6.576841
0.390019 6.503894
0.393381 6.435304
0.396743 6.371770
0.400105 6.313791
0.403468 6.261652
0.406830 6.215423
0.410192 6.174966
0.413554 6.139951
0.416917 6.109870
0.420279 6.084063
0.423641 6.061751
0.427003 6.042067
0.430366 6.024096
0.433728 6.006917
0.437090 5.989646
0.440452 5.971468
0.443814 5.951674
0.447177 5.929688
0.450539 5.905093
0.453901 5.877639
0.457263 5.847264
0.460626 5.814090
0.463988 5.778428
0.467350 5.740765
0.470712 5.701748
0.474075 5.662170
0.477437 5.622932
0.480799 5.585017
0.484161 5.541186
0.487523 5.501631
0.490886 5.471037
0.494248 5.446314
0.497610 5.428118
0.500972 5.417378
0.504335 5.413854

0.504335 5.413854
0.507697 5.331649
0.511059 5.231252
0.514421 5.128585
0.517783 5.024493
0.521146 4.919474
0.524508 4.817840
0.527870 4.712521
0.531232 4.608115
0.534595 4.504575
0.537957 4.401863
0.541319 4.299904
0.544681 4.198555
0.548044 4.097613
0.551406 3.996829
0.554768 3.895929
0.558130 3.794644
0.561492 3.692738
0.564855 3.590040
0.568217 3.486478
0.571579 3.382083
0.574941 3.276935
0.578304 3.171075
0.581666 3.064454
0.585028 2.956990
0.588390 2.848626
0.591753 2.739369
0.595115 2.629299
0.598477 2.518577
0.601839 2.407478
0.605201 2.296451
0.608564 2.186218
0.611926 2.077871
0.615288 1.972850
0.618650 1.841160
0.622013 1.697578
0.625375 1.554221
0.628737 1.433377
0.632099 1.314068
0.635462 1.194407
0.638824 1.074494
0.642186 0.953995
0.645548 0.831354
0.648910 0.700190
0.652273 0.558741
0.655635 0.460110
0.658997 0.366760
0.662359 0.278671
0.665722 0.196900
0.669084 0.104321
0.672446 -0.011686


0.000000 0.093282
0.003362 0.127009
0.006724 0.215499
0.010087 0.328805
0.013449 0.449619
0.016811 0.598459
0.020173 0.862438
0.023536 1.167762
0.026898 1.311173
0.030260 1.369160
0.033622 1.420414
0.036984 1.476605
0.040347 1.540216
0.043709 1.611846
0.047071 1.691425
0.050433 1.778567
0.053796 1.872667
0.057158 1.983698
0.060520 2.124189
0.063882 2.261894
0.067245 2.396302
0.070607 2.527091
0.073969 2.654100
0.077331 2.777306
0.080694 2.896802
0.084056 3.012781
0.087418 3.125513
0.090780 3.235325
0.094143 3.342576
0.097505 3.447638
0.100867 3.550873
0.104229 3.652608
0.107591 3.753122
0.110954 3.852623
0.114316 3.951237
0.117678 4.048994
0.121040 4.145812
0.124402 4.241491
0.127765 4.335700
0.131127 4.427964
0.134489 4.517661
0.137851 4.604012
0.141214 4.686087
0.144576 4.762813
0.147938 4.833001
0.151300 4.923957
0.154663 5.030217
0.158025 5.135778
0.161387 5.239801
0.164749 5.341022
0.168111 5.430722

0.168111 5.430722
0.171474 5.433586
0.174836 5.442412
0.178198 5.458263
0.181561 5.484538
0.184923 5.517235
0.188285 5.549446
0.191647 5.593449
0.195009 5.654169
0.198372 5.693402
0.201734 5.732932
0.205096 5.771848
0.208458 5.809352
0.211820 5.844787
0.215183 5.877662
0.218545 5.907664
0.221907 5.934668
0.225270 5.958739
0.228632 5.980126
0.231994 5.999258
0.235356 6.016721
0.238718 6.033242
0.242081 6.049662
0.245443 6.066903
0.248805 6.085933
0.252167 6.107728
0.255530 6.133231
0.258892 6.163306
0.262254 6.198693
0.265616 6.239968
0.268978 6.287506
0.272341 6.341456
0.275703 6.401729
0.279065 6.468000
0.282427 6.539718
0.285790 6.616129
0.289152 6.696293
0.292514 6.779124
0.295876 6.863414
0.299239 6.947868
0.302601 7.031140
0.305963 7.111861
0.309325 7.188670
0.312687 7.260236
0.316050 7.325291
0.319412 7.382645
0.322774 7.431220
0.326136 7.470070
0.329499 7.498412
0.332861 7.515662
0.336223 7.521453

0.336223 7.521453
0.339585 7.515662
0.342948 7.498412
0.346310 7.470070
0.349672 7.431220
0.353034 7.382645
0.356396 7.325291
0.359759 7.260236
0.363121 7.188670
0.366483 7.111861
0.369845 7.031140
0.373208 6.947868
0.376570 6.863414
0.379932 6.779124
0.383294 6.696293
0.386657 6.616129
0.390019 6.539718
0.393381 6.468000
0.396743 6.401729
0.400105 6.341456
0.403468 6.287506
0.406830 6.239968
0.410192 6.198693
0.413554 6.163306
0.416917 6.133231
0.420279 6.107728
0.423641 6.085933
0.427003 6.066903
0.430366 6.049662
0.433728 6.033242
0.437090 6.016721
0.440452 5.999258
0.443814 5.980126
0.447177 5.958739
0.450539 5.934668
0.453901 5.907664
0.457263 5.877662
0.460626 5.844787
0.463988 5.809352
0.467350 5.771848
0.470712 5.732932
0.474075 5.693402
0.477437 5.654169
0.480799 5.593449
0.484161 5.549446
0.487523 5.517235
0.490886 5.484538
0.494248 5.458263
0.497610 5.442412
0.500972 5.433586
0.504335 5.430722

0.504335 5.430722
0.507697 5.341022
0.511059 5.239801
0.514421 5.135778
0.517783 5.030217
0.521146 4.923957
0.524508 4.833001
0.527870 4.762813
0.531232 4.686087
0.534595 4.604012
0.537957 4.517661
0.541319 4.427964
0.544681 4.335700
0.548044 4.241491
0.551406 4.145812
0.554768 4.048994
0.558130 3.951237
0.561492 3.852623
0.564855 3.753122
0.568217 3.652608
0.571579 3.550873
0.574941 3.447638
0.578304 3.342576
0.581666 3.235325
0.585028 3.125513
0.588390 3.012781
0.591753 2.896802
0.595115 2.777306
0.598477 2.654100
0.601839 2.527091
0.605201 2.396302
0.608564 2.261894
0.611926 2.124189
0.615288 1.983698
0.618650 1.872667
0.622013 1.778567
0.625375 1.691425
0.628737 1.611846
0.632099 1.540216
0.635462 1.476605
0.638824 1.420414
0.642186 1.369160
0.645548 1.311173
0.648910 1.167762
0.652273 0.862438
0.655635 0.598459
0.658997 0.449619
0.662359 0.328805
0.665722 0.215499
0.669084 0.127009
0.672446 0.093282


0.000000 0.093282
0.003362 0.254632
0.006724 0.481179
0.010087 0.714050
0.013449 0.948686
0.016811 1.180762
0.020173 1.327628
0.023536 1.402804
0.026898 1.615836
0.030260 1.898538
0.033622 2.180516
0.036984 2.454613
0.040347 2.720581
0.043709 2.978698
0.047071 3.229069
0.050433 3.471574
0.053796 3.705913
0.057158 3.931665
0.060520 4.148336
0.063882 4.355412
0.067245 4.552395
0.070607 4.738839
0.073969 4.914360
0.077331 5.078648
0.080694 5.231459
0.084056 5.372599
0.087418 5.501910
0.090780 5.619252
0.094143 5.724522
0.097505 5.817722
0.100867 5.899017
0.104229 5.968689
0.107591 6.027027
0.110954 6.074277
0.114316 6.110646
0.117678 6.136317
0.121040 6.151471
0.124402 6.156300
0.127765 6.151014
0.131127 6.135853
0.134489 6.111093
0.137851 6.077051
0.141214 6.034093
0.144576 5.982635
0.147938 5.923150
0.151300 5.856171
0.154663 5.782287
0.158025 5.702144
0.161387 5.616456
0.164749 5.526069
0.168111 5.436143

0.168111 5.436143
0.171474 5.439611
0.174836 5.449898
0.178198 5.466662
0.181561 5.489350
0.184923 5.525717
0.188285 5.580605
0.191647 5.616227
0.195009 5.661465
0.198372 5.746114
0.201734 5.845394
0.205096 5.955603
0.208458 6.072887
0.211820 6.193941
0.215183 6.316079
0.218545 6.437126
0.221907 6.555296
0.225270 6.669109
0.228632 6.777344
0.231994 6.879006
0.235356 6.973314
0.238718 7.059696
0.242081 7.137804
0.245443 7.207525
0.248805 7.269008
0.252167 7.322694
0.255530 7.369347
0.258892 7.410073
0.262254 7.446320
0.265616 7.479827
0.268978 7.512512
0.272341 7.546296
0.275703 7.582857
0.279065 7.623368
0.282427 7.668249
0.285790 7.716950
0.289152 7.767774
0.292514 7.817769
0.295876 7.862910
0.299239 7.899050
0.302601 7.923805
0.305963 7.938043
0.309325 7.945202
0.312687 7.949155
0.316050 7.952641
0.319412 7.956819
0.322774 7.961531
0.326136 7.965975
0.329499 7.969446
0.332861 7.971613
0.336223 7.972348

0.336223 7.972348
0.339585 7.971613
0.342948 7.969446
0.346310 7.965975
0.349672 7.961531
0.353034 7.956819
0.356396 7.952641
0.359759 7.949155
0.363121 7.945202
0.366483 7.938043
0.369845 7.923805
0.373208 7.899050
0.376570 7.862910
0.379932 7.817769
0.383294 7.767774
0.386657 7.716950
0.390019 7.668249
0.393381 7.623368
0.396743 7.582857
0.400105 7.546296
0.403468 7.512512
0.406830 7.479827
0.410192 7.446320
0.413554 7.410073
0.416917 7.369347
0.420279 7.322694
0.423641 7.269008
0.427003 7.207525
0.430366 7.137804
0.433728 7.059696
0.437090 6.973314
0.440452 6.879006
0.443814 6.777344
0.447177 6.669109
0.450539 6.555296
0.453901 6.437126
0.457263 6.316079
0.460626 6.193941
0.463988 6.072887
0.467350 5.955603
0.470712 5.845394
0.474075 5.746114
0.477437 5.661465
0.480799 5.616227
0.484161 5.580605
0.487523 5.525717
0.490886 5.489350
0.494248 5.466662
0.497610 5.449898
0.500972 5.439611
0.504335 5.436143

0.504335 5.436143
0.507697 5.526069
0.511059 5.616456
0.514421 5.702144
0.517783 5.782287
0.521146 5.856171
0.524508 5.923150
0.527870 5.982635
0.531232 6.034093
0.534595 6.077051
0.537957 6.111093
0.541319 6.135853
0.544681 6.151014
0.548044 6.156300
0.551406 6.151471
0.554768 6.136317
0.558130 6.110646
0.561492 6.074277
0.564855 6.027027
0.568217 5.968689
0.571579 5.899017
0.574941 5.817722
0.578304 5.724522
0.581666 5.619252
0.585028 5.501910
0.588390 5.372599
0.591753 5.231459
0.595115 5.078648
0.598477 4.914360
0.601839 4.738839
0.605201 4.552395
0.608564 4.355412
0.611926 4.148336
0.615288 3.931665
0.618650 3.705913
0.622013 3.471574
0.625375 3.229069
0.628737 2.978698
0.632099 2.720581
0.635462 2.454613
0.638824 2.180516
0.642186 1.898538
0.645548 1.615836
0.648910 1.402804
0.652273 1.327628
0.655635 1.180762
0.658997 0.948686
0.662359 0.714050
0.665722 0.481179
0.669084 0.254632
0.672446 0.093282


0.000000 1.283139
0.003362 1.283989
0.006724 1.286779
0.010087 1.292291
0.013449 1.302221
0.016811 1.322324
0.020173 1.440720
0.023536 1.673467
0.026898 1.913252
0.030260 2.154460
0.033622 2.395914
0.036984 2.636735
0.040347 2.876000
0.043709 3.112702
0.047071 3.345757
0.050433 3.574052
0.053796 3.796481
0.057158 4.011994
0.060520 4.219632
0.063882 4.418553
0.067245 4.608042
0.070607 4.787520
0.073969 4.956544
0.077331 5.114795
0.080694 5.262073
0.084056 5.398285
0.087418 5.523436
0.090780 5.637613
0.094143 5.740945
0.097505 5.833511
0.100867 5.915270
0.104229 5.986095
0.107591 6.045879
0.110954 6.094586
0.114316 6.132252
0.117678 6.158970
0.121040 6.174880
0.124402 6.180163
0.127765 6.175041
0.131127 6.159776
0.134489 6.134672
0.137851 6.100081
0.141214 6.056402
0.144576 6.004087
0.147938 5.943640
0.151300 5.875625
0.154663 5.800663
0.158025 5.719451
0.161387 5.632814
0.164749 5.542149
0.168111 5.467017

0.168111 5.467017
0.171474 5.470496
0.174836 5.480815
0.178198 5.497629
0.181561 5.520379
0.184923 5.548331
0.188285 5.583443
0.191647 5.658187
0.195009 5.748709
0.198372 5.852219
0.201734 5.965424
0.205096 6.085211
0.208458 6.208865
0.211820 6.334054
0.215183 6.458778
0.218545 6.581312
0.221907 6.700178
0.225270 6.814119
0.228632 6.922084
0.231994 7.023224
0.235356 7.116893
0.238718 7.202652
0.242081 7.280278
0.245443 7.349780
0.248805 7.411421
0.252167 7.465732
0.255530 7.513532
0.258892 7.555929
